0	0.49591043
0.001	0.683035113
0.002	0.494367712
0.003	0.156278335
0.004	-0.114335621
0.005	-0.25103247
0.006	-0.326981349
0.007	-0.424008185
0.008	-0.531315759
0.009	-0.573463101
0.01	-0.49555757
0.011	-0.315347253
0.012	-0.103138817
0.013	0.087802896
0.014	0.245773719
0.015	0.373642281
0.016	0.464646406
0.017	0.49260035
0.018	0.435542341
0.019	0.302408629
0.02	0.121540897
0.021	-0.07538169
0.022	-0.261143081
0.023	-0.417768517
0.024	-0.525065431
0.025	-0.563150644
0.026	-0.526552692
0.027	-0.41924371
0.028	-0.258587639
0.029	-0.070192379
0.03	0.124016565
0.031	0.295527235
0.032	0.419772974
0.033	0.481064159
0.034	0.466540646
0.035	0.379966464
0.036	0.23629939
0.037	0.05252197
0.038	-0.141978595
0.039	-0.321103201
0.04	-0.464675552
0.041	-0.548603811
0.042	-0.56196143
0.043	-0.50335679
0.044	-0.377240322
0.045	-0.204596791
0.046	-0.010158814
0.047	0.180368758
0.048	0.336816102
0.049	0.440982957
0.05	0.480248899
0.051	0.44432147
0.052	0.34193596
0.053	0.18547399
0.054	-0.005718667
0.055	-0.199998268
0.056	-0.371389598
0.057	-0.496518906
0.058	-0.555982768
0.059	-0.545311538
0.06	-0.463754369
0.061	-0.319651015
0.062	-0.136698099
0.063	0.062484874
0.064	0.248550779
0.065	0.390950453
0.066	0.474697735
0.067	0.487850534
0.068	0.42767843
0.069	0.305435113
0.07	0.134530188
0.071	-0.060789221
0.072	-0.24998921
0.073	-0.409156627
0.074	-0.51283251
0.075	-0.545748931
0.076	-0.508600377
0.077	-0.401884237
0.078	-0.240981211
0.079	-0.05050203
0.08	0.146826161
0.081	0.320819622
0.082	0.446217988
0.083	0.50839328
0.084	0.495898466
0.085	0.412712916
0.086	0.272528779
0.087	0.090597377
0.088	-0.10419724
0.089	-0.284723615
0.09	-0.429304847
0.091	-0.512918451
0.092	-0.524911668
0.093	-0.464849591
0.094	-0.337656926
0.095	-0.163925271
0.096	0.032529362
0.097	0.226468028
0.098	0.386779724
0.099	0.493432687
0.1	0.532454039
0.101	0.493857124
0.102	0.388440747
0.103	0.230592777
0.104	0.039939914
0.105	-0.153241681
0.106	-0.324559671
0.107	-0.450703997
0.108	-0.510834417
0.109	-0.499376969
0.11	-0.416070523
0.111	-0.270934655
0.112	-0.088749781
0.113	0.108704914
0.114	0.293744778
0.115	0.43638346
0.116	0.520501897
0.117	0.532450908
0.118	0.469364016
0.119	0.344343587
0.12	0.172723343
0.121	-0.021094537
0.122	-0.208445144
0.123	-0.367572547
0.124	-0.473369
0.125	-0.50920534
0.126	-0.474245143
0.127	-0.36847747
0.128	-0.208036044
0.129	-0.018220918
0.13	0.178401897
0.131	0.352008365
0.132	0.477215145
0.133	0.538557161
0.134	0.523774189
0.135	0.437177435
0.136	0.293708433
0.137	0.109794353
0.138	-0.085372314
0.139	-0.265552714
0.14	-0.410219834
0.141	-0.494708191
0.142	-0.507899491
0.143	-0.448432064
0.144	-0.320730777
0.145	-0.145927678
0.146	0.051093093
0.147	0.244241139
0.148	0.402502416
0.149	0.506955493
0.15	0.544635241
0.151	0.505576988
0.152	0.39975398
0.153	0.240673286
0.154	0.04819334
0.155	-0.146213456
0.156	-0.317343172
0.157	-0.442363913
0.158	-0.501954148
0.159	-0.491634457
0.16	-0.410598327
0.161	-0.267328006
0.162	-0.085642965
0.163	0.112193454
0.164	0.297164485
0.165	0.438805956
0.166	0.522042528
0.167	0.534606833
0.168	0.47374099
0.169	0.350906692
0.17	0.179444253
0.171	-0.0167434
0.172	-0.20768334
0.173	-0.369717081
0.174	-0.476777074
0.175	-0.512685669
0.176	-0.477537399
0.177	-0.371796646
0.178	-0.211574664
0.179	-0.022111951
0.18	0.173798265
0.181	0.346221602
0.182	0.470287963
0.183	0.53138511
0.184	0.517637087
0.185	0.432703634
0.186	0.290209775
0.187	0.105757633
0.188	-0.091037154
0.189	-0.272614546
0.19	-0.417346201
0.191	-0.500703199
0.192	-0.512913408
0.193	-0.454145216
0.194	-0.329367273
0.195	-0.158728505
0.196	0.034816525
0.197	0.226752058
0.198	0.386229853
0.199	0.49304009
0.2	0.532454039
0.201	0.493569581
0.202	0.386732528
0.203	0.226557064
0.204	0.03370149
0.205	-0.160411345
0.206	-0.331036991
0.207	-0.455547962
0.208	-0.514440163
0.209	-0.503127781
0.21	-0.421210222
0.211	-0.277741272
0.212	-0.096490919
0.213	0.101096879
0.214	0.28687467
0.215	0.430268061
0.216	0.514944855
0.217	0.527419949
0.218	0.465026256
0.219	0.340684245
0.22	0.169295407
0.221	-0.024997464
0.222	-0.213400196
0.223	-0.373636542
0.224	-0.480117083
0.225	-0.516166015
0.226	-0.481313079
0.227	-0.376139849
0.228	-0.217119307
0.229	-0.029338232
0.23	0.165279764
0.231	0.337727877
0.232	0.463125738
0.233	0.525804575
0.234	0.512718953
0.235	0.427160904
0.236	0.283389194
0.237	0.097915009
0.238	-0.099391594
0.239	-0.28136886
0.24	-0.426790132
0.241	-0.510945018
0.242	-0.523246646
0.243	-0.463163736
0.244	-0.335843289
0.245	-0.162527719
0.246	0.032414238
0.247	0.223679612
0.248	0.380901716
0.249	0.485320081
0.25	0.523753182
0.251	0.485949877
0.252	0.381501879
0.253	0.223444777
0.254	0.031102516
0.255	-0.164371105
0.256	-0.337307978
0.257	-0.463712494
0.258	-0.523227343
0.259	-0.511340205
0.26	-0.428488039
0.261	-0.28467621
0.262	-0.104135088
0.263	0.091951917
0.264	0.276314128
0.265	0.419343772
0.266	0.505060592
0.267	0.519314943
0.268	0.458015828
0.269	0.332925805
0.27	0.159102988
0.271	-0.037823159
0.272	-0.227358013
0.273	-0.386733484
0.274	-0.491493824
0.275	-0.526607054
0.276	-0.492222865
0.277	-0.388049594
0.278	-0.229238914
0.279	-0.040600565
0.28	0.154866633
0.281	0.32691278
0.282	0.450672608
0.283	0.511973305
0.284	0.499384951
0.285	0.416439104
0.286	0.276079224
0.287	0.093119338
0.288	-0.103161963
0.289	-0.284808809
0.29	-0.429477216
0.291	-0.512096948
0.292	-0.522757187
0.293	-0.461950644
0.294	-0.335235126
0.295	-0.163452236
0.296	0.029865133
0.297	0.220242671
0.298	0.377721851
0.299	0.483464256
0.3	0.523753182
0.301	0.487445834
0.302	0.383488616
0.303	0.225064429
0.304	0.032422462
0.305	-0.162116978
0.306	-0.332582335
0.307	-0.45594708
0.308	-0.513216864
0.309	-0.50050271
0.31	-0.41748459
0.311	-0.272696801
0.312	-0.089776331
0.313	0.109253916
0.314	0.295583578
0.315	0.4386852
0.316	0.523217674
0.317	0.5364781
0.318	0.475305776
0.319	0.351394342
0.32	0.179039554
0.321	-0.016634001
0.322	-0.205003786
0.323	-0.363239779
0.324	-0.467193536
0.325	-0.502244648
0.326	-0.468463962
0.327	-0.364528812
0.328	-0.204436351
0.329	-0.012845327
0.33	0.186224594
0.331	0.360982749
0.332	0.48574198
0.333	0.546870533
0.334	0.53421015
0.335	0.452295669
0.336	0.314089156
0.337	0.133438849
0.338	-0.061442053
0.339	-0.24312131
0.34	-0.3890038
0.341	-0.473110046
0.342	-0.484692494
0.343	-0.423828981
0.344	-0.296003495
0.345	-0.122250603
0.346	0.073648268
0.347	0.266710852
0.348	0.425916007
0.349	0.531355965
0.35	0.568997647
0.351	0.528634761
0.352	0.421257175
0.353	0.261495194
0.354	0.069249311
0.355	-0.124974485
0.356	-0.297084352
0.357	-0.424262131
0.358	-0.485899099
0.359	-0.476155938
0.36	-0.393900213
0.361	-0.248439187
0.362	-0.064659004
0.363	0.134928088
0.364	0.321747796
0.365	0.465585483
0.366	0.550868684
0.367	0.564277168
0.368	0.502534157
0.369	0.377792872
0.37	0.204913393
0.371	0.009226035
0.372	-0.178949073
0.373	-0.336857925
0.374	-0.439823218
0.375	-0.472661732
0.376	-0.435461756
0.377	-0.327973726
0.378	-0.165938411
0.379	0.024841585
0.38	0.220357706
0.381	0.38984118
0.382	0.508916475
0.383	0.564442877
0.384	0.545841011
0.385	0.457106575
0.386	0.311424888
0.387	0.124181816
0.388	-0.074582639
0.389	-0.257001915
0.39	-0.402085474
0.391	-0.486706846
0.392	-0.501892709
0.393	-0.446770068
0.394	-0.324109652
0.395	-0.152804413
0.396	0.043015953
0.397	0.235761326
0.398	0.392200846
0.399	0.492649685
0.4	0.525493346
0.401	0.483208484
0.402	0.377258217
0.403	0.22036294
0.404	0.030038153
0.405	-0.164318855
0.406	-0.337656665
0.407	-0.465131639
0.408	-0.52509169
0.409	-0.512460364
0.41	-0.428071392
0.411	-0.28301437
0.412	-0.102313994
0.413	0.09299003
0.414	0.276177773
0.415	0.418012568
0.416	0.502479761
0.417	0.515399812
0.418	0.453276255
0.419	0.328713931
0.42	0.156816301
0.421	-0.038018944
0.422	-0.227115353
0.423	-0.388465197
0.424	-0.496388255
0.425	-0.533567728
0.426	-0.498687803
0.427	-0.39197775
0.428	-0.230453675
0.429	-0.040381773
0.43	0.155139718
0.431	0.326674433
0.432	0.449920578
0.433	0.510544665
0.434	0.496938874
0.435	0.413058646
0.436	0.272553629
0.437	0.090298457
0.438	-0.105578765
0.439	-0.288538301
0.44	-0.436391529
0.441	-0.522637353
0.442	-0.535341073
0.443	-0.474023316
0.444	-0.345061654
0.445	-0.170867647
0.446	0.024000635
0.447	0.214980407
0.448	0.372510418
0.449	0.477762895
0.45	0.51679249
0.451	0.478813198
0.452	0.3735009
0.453	0.214611983
0.454	0.022073441
0.455	-0.173173351
0.456	-0.345961969
0.457	-0.472490388
0.458	-0.532056729
0.459	-0.519338593
0.46	-0.434511393
0.461	-0.288377079
0.462	-0.106402733
0.463	0.089062809
0.464	0.270733018
0.465	0.410370049
0.466	0.493569668
0.467	0.507106038
0.468	0.44654405
0.469	0.322355315
0.47	0.148441465
0.471	-0.049750424
0.472	-0.24094017
0.473	-0.40184584
0.474	-0.508206598
0.475	-0.545748931
0.476	-0.515609744
0.477	-0.416904999
0.478	-0.263491147
0.479	-0.079498103
0.48	0.112715011
0.481	0.282126072
0.482	0.402484609
0.483	0.459574528
0.484	0.441672487
0.485	0.352709947
0.486	0.206982385
0.487	0.019496406
0.488	-0.179493085
0.489	-0.361319454
0.49	-0.504309431
0.491	-0.582812691
0.492	-0.58603017
0.493	-0.513435873
0.494	-0.369216284
0.495	-0.174598567
0.496	0.044438387
0.497	0.260176024
0.498	0.440380341
0.499	0.566238238
0.5	0.626423297
0.501	0.613338406
0.502	0.538135801
0.503	0.414135678
0.504	0.25991813
0.505	0.105049393
0.506	-0.026707385
0.507	-0.113588782
0.508	-0.137322586
0.509	-0.094569867
0.51	0.013864531
0.511	0.178022778
0.512	0.373271335
0.513	0.57679638
0.514	0.759391144
0.515	0.890109056
0.516	0.952581577
0.517	0.933540701
0.518	0.830073359
0.519	0.654942015
0.52	0.424572577
0.521	0.166634696
0.522	-0.085052691
0.523	-0.303280285
0.524	-0.459355884
0.525	-0.53530791
0.526	-0.530245336
0.527	-0.444548757
0.528	-0.294973955
0.529	-0.107799749
0.53	0.092611041
0.531	0.274022909
0.532	0.409213962
0.533	0.481181437
0.534	0.476119176
0.535	0.397405131
0.536	0.258626732
0.537	0.075313678
0.538	-0.12210191
0.539	-0.306062736
0.54	-0.454220167
0.541	-0.540046144
0.542	-0.55308603
0.543	-0.493026648
0.544	-0.36542064
0.545	-0.192439673
0.546	0.002270058
0.547	0.193936499
0.548	0.351849942
0.549	0.457144155
0.55	0.49591043
0.551	0.457766664
0.552	0.353205718
0.553	0.195831765
0.554	0.004683267
0.555	-0.19020292
0.556	-0.363893208
0.557	-0.492008916
0.558	-0.552766054
0.559	-0.540252511
0.56	-0.455165278
0.561	-0.309188169
0.562	-0.128298862
0.563	0.06561278
0.564	0.246316078
0.565	0.386119826
0.566	0.470289824
0.567	0.484733395
0.568	0.424403529
0.569	0.299887671
0.57	0.125822095
0.571	-0.071858151
0.572	-0.262067724
0.573	-0.421632208
0.574	-0.526310224
0.575	-0.56141048
0.576	-0.526953254
0.577	-0.422229015
0.578	-0.261839829
0.579	-0.070604677
0.58	0.127591781
0.581	0.301491324
0.582	0.425699449
0.583	0.486252011
0.584	0.472579251
0.585	0.388878644
0.586	0.248244402
0.587	0.065377141
0.588	-0.130844751
0.589	-0.312677697
0.59	-0.45774211
0.591	-0.541061685
0.592	-0.552641559
0.593	-0.492716393
0.594	-0.366542399
0.595	-0.194476528
0.596	6.98E-05
0.597	0.192079891
0.598	0.350673544
0.599	0.455982538
0.6	0.494170266
0.601	0.455380027
0.602	0.350099518
0.603	0.192309039
0.604	0.00137336
0.605	-0.192618999
0.606	-0.365118419
0.607	-0.492549519
0.608	-0.5539468
0.609	-0.543520699
0.61	-0.460908949
0.611	-0.316153192
0.612	-0.134027064
0.613	0.063450963
0.614	0.248515912
0.615	0.391448016
0.616	0.476285685
0.617	0.489368732
0.618	0.42738833
0.619	0.3027301
0.62	0.130628806
0.621	-0.063994038
0.622	-0.251887675
0.623	-0.411136443
0.624	-0.517322797
0.625	-0.554449788
0.626	-0.521268656
0.627	-0.416871472
0.628	-0.256725223
0.629	-0.066677251
0.63	0.129151909
0.631	0.300299483
0.632	0.422551513
0.633	0.482623815
0.634	0.469678479
0.635	0.386947886
0.636	0.246548182
0.637	0.062792572
0.638	-0.134980493
0.639	-0.317971142
0.64	-0.462813119
0.641	-0.544379469
0.642	-0.553644718
0.643	-0.492456117
0.644	-0.367202019
0.645	-0.197896079
0.646	-0.00616596
0.647	0.184951351
0.648	0.345240354
0.649	0.453642402
0.65	0.494170266
0.651	0.455495236
0.652	0.348386169
0.653	0.188400517
0.654	-0.003538538
0.655	-0.196907214
0.656	-0.367884732
0.657	-0.493866132
0.658	-0.554237317
0.659	-0.542910397
0.66	-0.45910872
0.661	-0.312845128
0.662	-0.129316267
0.663	0.068916262
0.664	0.253632013
0.665	0.394835482
0.666	0.476739529
0.667	0.486621183
0.668	0.422677138
0.669	0.298387489
0.67	0.12853066
0.671	-0.063944162
0.672	-0.251631677
0.673	-0.412510166
0.674	-0.520040732
0.675	-0.55618997
0.676	-0.520039149
0.677	-0.41328922
0.678	-0.253609597
0.679	-0.066111431
0.68	0.128347268
0.681	0.301810674
0.682	0.42899607
0.683	0.492732427
0.684	0.479279755
0.685	0.392962406
0.686	0.250065621
0.687	0.068082664
0.688	-0.12468532
0.689	-0.303821374
0.69	-0.449642286
0.691	-0.536671077
0.692	-0.5519249
0.693	-0.4931369
0.694	-0.365651597
0.695	-0.191863508
0.696	0.003083382
0.697	0.194117425
0.698	0.35146618
0.699	0.456111172
0.7	0.494170266
0.701	0.455354481
0.702	0.350037557
0.703	0.192346793
0.704	0.001614234
0.705	-0.192411327
0.706	-0.365356506
0.707	-0.493200409
0.708	-0.554267106
0.709	-0.542682589
0.71	-0.45897666
0.711	-0.314309522
0.712	-0.133610941
0.713	0.062233698
0.714	0.246795207
0.715	0.390532972
0.716	0.476294432
0.717	0.489111291
0.718	0.425658391
0.719	0.299557939
0.72	0.127101248
0.721	-0.067114931
0.722	-0.255156924
0.723	-0.415822038
0.724	-0.523800274
0.725	-0.56141048
0.726	-0.526719219
0.727	-0.419920181
0.728	-0.258272411
0.729	-0.068249715
0.73	0.127174385
0.731	0.299123972
0.732	0.423596912
0.733	0.485775212
0.734	0.472989325
0.735	0.388172315
0.736	0.245050713
0.737	0.06004495
0.738	-0.136759547
0.739	-0.317766914
0.74	-0.461662353
0.741	-0.544427848
0.742	-0.556296848
0.743	-0.497125939
0.744	-0.371614729
0.745	-0.199711229
0.746	-0.004670363
0.747	0.188345164
0.748	0.348037065
0.749	0.45407536
0.75	0.492430084
0.751	0.453454364
0.752	0.348117024
0.753	0.190681771
0.754	0.000391007
0.755	-0.192950017
0.756	-0.364850196
0.757	-0.491387258
0.758	-0.551163879
0.759	-0.538582028
0.76	-0.45420895
0.761	-0.309118523
0.762	-0.128396605
0.763	0.066814556
0.764	0.250114383
0.765	0.392487033
0.766	0.477685544
0.767	0.491215324
0.768	0.429262815
0.769	0.304469586
0.77	0.132411233
0.771	-0.062099185
0.772	-0.250094036
0.773	-0.409579952
0.774	-0.51540889
0.775	-0.550969459
0.776	-0.515597954
0.777	-0.409802474
0.778	-0.249983488
0.779	-0.061202111
0.78	0.134737781
0.781	0.309053588
0.782	0.436847634
0.783	0.502248474
0.784	0.491941234
0.785	0.408953443
0.786	0.267487211
0.787	0.084060093
0.788	-0.111441502
0.789	-0.291593427
0.79	-0.434839838
0.791	-0.516331864
0.792	-0.525815531
0.793	-0.463656133
0.794	-0.335696326
0.795	-0.162912367
0.796	0.031464094
0.797	0.223345272
0.798	0.382407028
0.799	0.488544673
0.8	0.527233528
0.801	0.488234522
0.802	0.382733508
0.803	0.225609849
0.804	0.036366222
0.805	-0.155460176
0.806	-0.326072652
0.807	-0.451934478
0.808	-0.511316555
0.809	-0.498068198
0.81	-0.412453179
0.811	-0.265784244
0.812	-0.083818075
0.813	0.111963068
0.814	0.295357648
0.815	0.437909223
0.816	0.523890806
0.817	0.538565473
0.818	0.47727881
0.819	0.352016556
0.82	0.178517106
0.821	-0.01723904
0.822	-0.205099274
0.823	-0.363081547
0.824	-0.467205831
0.825	-0.502244648
0.826	-0.467769805
0.827	-0.362934793
0.828	-0.202806578
0.829	-0.012615513
0.83	0.184081277
0.831	0.356581394
0.832	0.479911724
0.833	0.540198689
0.834	0.526487741
0.835	0.442768335
0.836	0.302177933
0.837	0.119354811
0.838	-0.076805126
0.839	-0.25877599
0.84	-0.404417855
0.841	-0.488467548
0.842	-0.500606111
0.843	-0.440847958
0.844	-0.314450938
0.845	-0.142282405
0.846	0.0518287
0.847	0.242821576
0.848	0.40008759
0.849	0.504534945
0.85	0.542895059
0.851	0.505143403
0.852	0.401350121
0.853	0.244674237
0.854	0.05396536
0.855	-0.140309679
0.856	-0.312910706
0.857	-0.439536718
0.858	-0.499026491
0.859	-0.48647276
0.86	-0.402689967
0.861	-0.258543851
0.862	-0.078809181
0.863	0.11577286
0.864	0.298815422
0.865	0.441122981
0.866	0.526406843
0.867	0.539848542
0.868	0.477202589
0.869	0.35077458
0.87	0.176063987
0.871	-0.021405239
0.872	-0.211542458
0.873	-0.371562072
0.874	-0.476099003
0.875	-0.50920534
0.876	-0.471289418
0.877	-0.363569162
0.878	-0.20293862
0.879	-0.014632082
0.88	0.179636361
0.881	0.351224981
0.882	0.475728683
0.883	0.537968405
0.884	0.525195038
0.885	0.440809144
0.886	0.298834898
0.887	0.11519052
0.888	-0.080792447
0.889	-0.262201923
0.89	-0.407621317
0.891	-0.491848911
0.892	-0.504066684
0.893	-0.44388319
0.894	-0.31663526
0.895	-0.143435012
0.896	0.051873674
0.897	0.244259503
0.898	0.402647188
0.899	0.506880559
0.9	0.542895059
0.901	0.501237767
0.902	0.393878719
0.903	0.235953451
0.904	0.046727275
0.905	-0.144903536
0.906	-0.315946338
0.907	-0.443275358
0.908	-0.505120188
0.909	-0.494890751
0.91	-0.412083676
0.911	-0.267376906
0.912	-0.086185795
0.913	0.109850396
0.914	0.293626943
0.915	0.435525577
0.916	0.519180101
0.917	0.530441703
0.918	0.466471451
0.919	0.340892856
0.92	0.169387903
0.921	-0.024025847
0.922	-0.211681039
0.923	-0.372392618
0.924	-0.48046283
0.925	-0.517906197
0.926	-0.482792776
0.927	-0.375276331
0.928	-0.212897938
0.929	-0.022500744
0.93	0.172774442
0.931	0.343913358
0.932	0.467096482
0.933	0.527933997
0.934	0.514035428
0.935	0.428544139
0.936	0.285101361
0.937	0.099744258
0.938	-0.097635792
0.939	-0.279622522
0.94	-0.424910952
0.941	-0.509017841
0.942	-0.521687094
0.943	-0.462370613
0.944	-0.335729002
0.945	-0.162446649
0.946	0.033206065
0.947	0.225314532
0.948	0.382544513
0.949	0.485637066
0.95	0.522013
0.951	0.482915741
0.952	0.379314253
0.953	0.224214458
0.954	0.035205135
0.955	-0.158770008
0.956	-0.332944568
0.957	-0.462035386
0.958	-0.523215831
0.959	-0.510525362
0.96	-0.425216007
0.961	-0.279541171
0.962	-0.099251738
0.963	0.095046892
0.964	0.277961256
0.965	0.421077815
0.966	0.507911664
0.967	0.522959937
0.968	0.461579646
0.969	0.336273691
0.97	0.163002021
0.971	-0.032841677
0.972	-0.222011564
0.973	-0.382544305
0.974	-0.489154679
0.975	-0.524866872
0.976	-0.488557837
0.977	-0.380571288
0.978	-0.218109754
0.979	-0.027708664
0.98	0.167549926
0.981	0.338733784
0.982	0.462271594
0.983	0.524032587
0.984	0.511441572
0.985	0.426896002
0.986	0.283423609
0.987	0.097329236
0.988	-0.100355864
0.989	-0.281147554
0.99	-0.423971701
0.991	-0.505939848
0.992	-0.518397099
0.993	-0.460954911
0.994	-0.336744838
0.995	-0.164523057
0.996	0.032149528
0.997	0.226525606
0.998	0.385905025
0.999	0.490297254
1	0.527233528
1.001	0.488186474
1.002	0.383932722
1.003	0.227282749
1.004	0.036305964
1.005	-0.158850103
1.006	-0.332470361
1.007	-0.45955133
1.008	-0.518545783
1.009	-0.504590558
1.01	-0.418861565
1.011	-0.272675411
1.012	-0.091323382
1.013	0.103921579
1.014	0.286546312
1.015	0.427848035
1.016	0.51242148
1.017	0.526150723
1.018	0.464715549
1.019	0.339761237
1.02	0.166211598
1.021	-0.030545085
1.022	-0.220282912
1.023	-0.380386868
1.024	-0.48604001
1.025	-0.521386543
1.026	-0.485853085
1.027	-0.378874008
1.028	-0.216155936
1.029	-0.023654721
1.03	0.174704472
1.031	0.348343215
1.032	0.472756421
1.033	0.534451453
1.034	0.52225613
1.035	0.439482148
1.036	0.298774868
1.037	0.114953288
1.038	-0.0821271
1.039	-0.26390642
1.04	-0.408032243
1.041	-0.489863426
1.042	-0.500027754
1.043	-0.439008949
1.044	-0.311582563
1.045	-0.137815916
1.046	0.058775489
1.047	0.252665686
1.048	0.412154888
1.049	0.517327023
1.05	0.555076262
1.051	0.51639412
1.052	0.412564683
1.053	0.257268573
1.054	0.068755451
1.055	-0.123591318
1.056	-0.295179435
1.057	-0.421440709
1.058	-0.480289626
1.059	-0.466240077
1.06	-0.380395736
1.061	-0.234356685
1.062	-0.053334783
1.063	0.142303921
1.064	0.326856854
1.065	0.471212224
1.066	0.558498195
1.067	0.573258334
1.068	0.511397088
1.069	0.386286057
1.07	0.214307884
1.071	0.020574079
1.072	-0.166618343
1.073	-0.326643513
1.074	-0.434956733
1.075	-0.474401896
1.076	-0.44299804
1.077	-0.33962869
1.078	-0.180413711
1.079	0.0084568
1.08	0.203709205
1.081	0.375613749
1.082	0.499845264
1.083	0.562119453
1.084	0.550269112
1.085	0.467410946
1.086	0.326610055
1.087	0.142985519
1.088	-0.053903048
1.089	-0.236162253
1.09	-0.381512452
1.091	-0.464723392
1.092	-0.476022661
1.093	-0.416239224
1.094	-0.291036513
1.095	-0.120624221
1.096	0.072963269
1.097	0.2662568
1.098	0.428534922
1.099	0.538766154
1.1	0.581178849
1.101	0.544659518
1.102	0.440281079
1.103	0.282816924
1.104	0.09164422
1.105	-0.103881519
1.106	-0.279999606
1.107	-0.412390279
1.108	-0.478106
1.109	-0.470074832
1.11	-0.388280133
1.111	-0.244591825
1.112	-0.065381276
1.113	0.127854386
1.114	0.30904851
1.115	0.449722141
1.116	0.53389346
1.117	0.54659718
1.118	0.483601689
1.119	0.357423939
1.12	0.183509721
1.121	-0.013322162
1.122	-0.204157328
1.123	-0.366852323
1.124	-0.475462669
1.125	-0.512685669
1.126	-0.477756496
1.127	-0.371625668
1.128	-0.211788839
1.129	-0.024099947
1.13	0.169530375
1.131	0.340540117
1.132	0.464586846
1.133	0.526150427
1.134	0.512018763
1.135	0.425624342
1.136	0.28161698
1.137	0.096943151
1.138	-0.098337136
1.139	-0.277583163
1.14	-0.420589974
1.141	-0.503656333
1.142	-0.516773361
1.143	-0.459099225
1.144	-0.334714261
1.145	-0.163576099
1.146	0.030858277
1.147	0.223276216
1.148	0.382425149
1.149	0.488387693
1.15	0.527233528
1.151	0.488829191
1.152	0.383560454
1.153	0.225166178
1.154	0.033004727
1.155	-0.162384596
1.156	-0.335962149
1.157	-0.463718233
1.158	-0.524626664
1.159	-0.513486687
1.16	-0.430611044
1.161	-0.28645112
1.162	-0.105719673
1.163	0.090320845
1.164	0.274558591
1.165	0.41733928
1.166	0.502358587
1.167	0.515394786
1.168	0.45293409
1.169	0.32751903
1.17	0.154298001
1.171	-0.04206218
1.172	-0.232242496
1.173	-0.393353889
1.174	-0.499352223
1.175	-0.533567728
1.176	-0.496138674
1.177	-0.388914798
1.178	-0.229289728
1.179	-0.042143956
1.18	0.151565419
1.181	0.323945769
1.182	0.450466572
1.183	0.514811822
1.184	0.503407378
1.185	0.419581406
1.186	0.277906755
1.187	0.094959399
1.188	-0.100190019
1.189	-0.28136126
1.19	-0.427557274
1.191	-0.513348332
1.192	-0.527219946
1.193	-0.468552686
1.194	-0.34322774
1.195	-0.173399636
1.196	0.016497486
1.197	0.202229891
1.198	0.354367109
1.199	0.454449819
1.2	0.488949755
1.201	0.446750487
1.202	0.337726382
1.203	0.175555016
1.204	-0.020574643
1.205	-0.219639012
1.206	-0.396904126
1.207	-0.529100865
1.208	-0.594600654
1.209	-0.587502442
1.21	-0.506555766
1.211	-0.360101146
1.212	-0.17290863
1.213	0.033416776
1.214	0.230817995
1.215	0.387692525
1.216	0.487918581
1.217	0.517399505
1.218	0.471808736
1.219	0.363517218
1.22	0.206577111
1.221	0.024828176
1.222	-0.151712994
1.223	-0.299520707
1.224	-0.391556912
1.225	-0.410015554
1.226	-0.354321999
1.227	-0.22551876
1.228	-0.040660117
1.229	0.174825871
1.23	0.398831824
1.231	0.602322298
1.232	0.759908392
1.233	0.854701692
1.234	0.872277479
1.235	0.814560477
1.236	0.695076848
1.237	0.530375847
1.238	0.350507348
1.239	0.182989673
1.24	0.048991349
1.241	-0.027653081
1.242	-0.037619098
1.243	0.017950531
1.244	0.132302984
1.245	0.283324451
1.246	0.446573509
1.247	0.59742232
1.248	0.706793199
1.249	0.757764692
1.25	0.73953445
1.251	0.644892617
1.252	0.486896102
1.253	0.281386736
1.254	0.049491649
1.255	-0.176938651
1.256	-0.37245444
1.257	-0.513060406
1.258	-0.578586906
1.259	-0.565594495
1.26	-0.475979204
1.261	-0.32237234
1.262	-0.131816057
1.263	0.073369677
1.264	0.264740427
1.265	0.412090858
1.266	0.499844099
1.267	0.513576211
1.268	0.450268448
1.269	0.323217546
1.27	0.147641211
1.271	-0.050418666
1.272	-0.240990741
1.273	-0.402012906
1.274	-0.507647701
1.275	-0.542268585
1.276	-0.506554723
1.277	-0.400736515
1.278	-0.241502163
1.279	-0.053747889
1.28	0.140937684
1.281	0.313259549
1.282	0.438163396
1.283	0.500007825
1.284	0.486125673
1.285	0.40031912
1.286	0.257166929
1.287	0.07305937
1.288	-0.122868063
1.289	-0.303903212
1.29	-0.448719851
1.291	-0.532304606
1.292	-0.543865699
1.293	-0.483250985
1.294	-0.356260131
1.295	-0.184138125
1.296	0.00963012
1.297	0.200858168
1.298	0.359464898
1.299	0.465604299
1.3	0.504611287
1.301	0.46578472
1.302	0.359649597
1.303	0.200776227
1.304	0.00902638
1.305	-0.18544827
1.306	-0.358336062
1.307	-0.486023228
1.308	-0.547198004
1.309	-0.536007736
1.31	-0.452532294
1.311	-0.307443292
1.312	-0.125657144
1.313	0.071557321
1.314	0.257361697
1.315	0.40219011
1.316	0.489214588
1.317	0.503540463
1.318	0.441331
1.319	0.315494668
1.32	0.142151003
1.321	-0.053262836
1.322	-0.24144808
1.323	-0.400459284
1.324	-0.505531426
1.325	-0.540528421
1.326	-0.50493721
1.327	-0.399184736
1.328	-0.239615349
1.329	-0.051451431
1.33	0.143015045
1.331	0.314742689
1.332	0.439228828
1.333	0.501413563
1.334	0.488795419
1.335	0.404576486
1.336	0.262357685
1.337	0.077905792
1.338	-0.119438601
1.339	-0.302382318
1.34	-0.449131542
1.341	-0.534577965
1.342	-0.547906368
1.343	-0.488576844
1.344	-0.361802096
1.345	-0.188650898
1.346	0.006703202
1.347	0.199012168
1.348	0.357771791
1.349	0.463671193
1.35	0.502871123
1.351	0.464738852
1.352	0.358787245
1.353	0.198609329
1.354	0.004395297
1.355	-0.192093595
1.356	-0.365025783
1.357	-0.490786052
1.358	-0.549560644
1.359	-0.536917771
1.36	-0.452999981
1.361	-0.307518574
1.362	-0.124883952
1.363	0.072748712
1.364	0.257076588
1.365	0.398216462
1.366	0.480896833
1.367	0.492458117
1.368	0.430112333
1.369	0.305932224
1.37	0.134366019
1.371	-0.06015959
1.372	-0.248324518
1.373	-0.407984664
1.374	-0.514716159
1.375	-0.552709623
1.376	-0.520661433
1.377	-0.417032972
1.378	-0.256526403
1.379	-0.064798331
1.38	0.133315815
1.381	0.306065431
1.382	0.428297253
1.383	0.486806474
1.384	0.471785763
1.385	0.3878486
1.386	0.248089944
1.387	0.066888406
1.388	-0.127317996
1.389	-0.307270245
1.39	-0.45103992
1.391	-0.533921215
1.392	-0.545885495
1.393	-0.486767398
1.394	-0.361225009
1.395	-0.189181588
1.396	0.005986244
1.397	0.198868179
1.398	0.358051839
1.399	0.463394553
1.4	0.501130958
1.401	0.461648667
1.402	0.355714155
1.403	0.197438478
1.404	0.006271108
1.405	-0.187609916
1.406	-0.359674761
1.407	-0.486481802
1.408	-0.547207447
1.409	-0.536126596
1.41	-0.452848966
1.411	-0.307501097
1.412	-0.125192783
1.413	0.071671282
1.414	0.25528561
1.415	0.396454612
1.416	0.480045766
1.417	0.492865964
1.418	0.431245622
1.419	0.30657614
1.42	0.133280818
1.421	-0.063528685
1.422	-0.253378971
1.423	-0.412919022
1.424	-0.517166461
1.425	-0.550969459
1.426	-0.514829073
1.427	-0.409306929
1.428	-0.25011833
1.429	-0.06200151
1.43	0.13258515
1.431	0.304236647
1.432	0.428521306
1.433	0.490820901
1.434	0.478760959
1.435	0.394908868
1.436	0.252057227
1.437	0.066105547
1.438	-0.132293658
1.439	-0.314342754
1.44	-0.45799863
1.441	-0.539726081
1.442	-0.551001039
1.443	-0.492546667
1.444	-0.36890309
1.445	-0.199117482
1.446	-0.00560739
1.447	0.186681151
1.448	0.346178927
1.449	0.452240821
1.45	0.49068992
1.451	0.451834642
1.452	0.346526692
1.453	0.188862986
1.454	-0.001953179
1.455	-0.196008308
1.456	-0.368650936
1.457	-0.495849357
1.458	-0.556213881
1.459	-0.544044034
1.46	-0.459726482
1.461	-0.314373048
1.462	-0.133457043
1.463	0.061217853
1.464	0.242939133
1.465	0.383298178
1.466	0.467212821
1.467	0.481098782
1.468	0.421033923
1.469	0.298486942
1.47	0.127807613
1.471	-0.066569437
1.472	-0.255166367
1.473	-0.41514981
1.474	-0.520984678
1.475	-0.55618997
1.476	-0.520237586
1.477	-0.413739551
1.478	-0.253387266
1.479	-0.065032572
1.48	0.128443332
1.481	0.298015934
1.482	0.420023477
1.483	0.480673319
1.484	0.468199895
1.485	0.385415462
1.486	0.244811357
1.487	0.061265374
1.488	-0.135743025
1.489	-0.317900747
1.49	-0.462492951
1.491	-0.544331229
1.492	-0.553504711
1.493	-0.490767462
1.494	-0.362121359
1.495	-0.188623352
1.496	0.00609407
1.497	0.197471433
1.498	0.355370216
1.499	0.460569688
1.5	0.499390776
1.501	0.461491183
1.502	0.356857651
1.503	0.199281383
1.504	0.00845145
1.505	-0.184795415
1.506	-0.355511266
1.507	-0.480392053
1.508	-0.539103224
1.509	-0.526443518
1.51	-0.442054059
1.511	-0.295491916
1.512	-0.111301241
1.513	0.088245659
1.514	0.274715796
1.515	0.417765004
1.516	0.501572194
1.517	0.513299953
1.518	0.450613274
1.519	0.326495038
1.52	0.155860927
1.521	-0.037256188
1.522	-0.224187539
1.523	-0.382895252
1.524	-0.488110149
1.525	-0.523126707
1.526	-0.487052542
1.527	-0.379961717
1.528	-0.218202199
1.529	-0.027609926
1.53	0.168670325
1.531	0.340822705
1.532	0.464203483
1.533	0.524575033
1.534	0.510673943
1.535	0.426710242
1.536	0.286432164
1.537	0.104640278
1.538	-0.0906105
1.539	-0.272784725
1.54	-0.419817597
1.541	-0.505424217
1.542	-0.517955219
1.543	-0.457113983
1.544	-0.329033264
1.545	-0.155530588
1.546	0.039523201
1.547	0.231923025
1.548	0.391682241
1.549	0.499067809
1.55	0.539414731
1.551	0.501863668
1.552	0.396962191
1.553	0.239329996
1.554	0.048850814
1.555	-0.144324506
1.556	-0.316196197
1.557	-0.443533217
1.558	-0.505139108
1.559	-0.495038113
1.56	-0.412877355
1.561	-0.269024695
1.562	-0.088612628
1.563	0.1067657
1.564	0.290122703
1.565	0.432276553
1.566	0.517437711
1.567	0.531450062
1.568	0.470370061
1.569	0.346219167
1.57	0.173864836
1.571	-0.021893536
1.572	-0.211482619
1.573	-0.372260976
1.574	-0.478730109
1.575	-0.514425851
1.576	-0.478876811
1.577	-0.372408774
1.578	-0.211416624
1.579	-0.021386877
1.58	0.175065749
1.581	0.348500804
1.582	0.474329676
1.583	0.537634917
1.584	0.525796228
1.585	0.441780653
1.586	0.299004955
1.587	0.113426272
1.588	-0.084748271
1.589	-0.267509749
1.59	-0.413106503
1.591	-0.497035928
1.592	-0.509443861
1.593	-0.450309471
1.594	-0.324613962
1.595	-0.153026372
1.596	0.040541759
1.597	0.230827107
1.598	0.387228943
1.599	0.490921294
1.6	0.528973692
1.601	0.491428925
1.602	0.387822933
1.603	0.230508627
1.604	0.037839284
1.605	-0.159452643
1.606	-0.334992031
1.607	-0.463160831
1.608	-0.522191369
1.609	-0.507643684
1.61	-0.421597741
1.611	-0.276033766
1.612	-0.095834921
1.613	0.099084436
1.614	0.283354762
1.615	0.428085739
1.616	0.516203856
1.617	0.531681958
1.618	0.469585721
1.619	0.342498543
1.62	0.166943386
1.621	-0.030710427
1.622	-0.220372731
1.623	-0.379949161
1.624	-0.484928859
1.625	-0.519646361
1.626	-0.483961419
1.627	-0.378251585
1.628	-0.218755131
1.629	-0.030632953
1.63	0.163867801
1.631	0.335619897
1.632	0.460102019
1.633	0.522294214
1.634	0.509637377
1.635	0.42536264
1.636	0.28321286
1.637	0.099208724
1.638	-0.096900931
1.639	-0.277762836
1.64	-0.422095808
1.641	-0.505603125
1.642	-0.518296567
1.643	-0.45983776
1.644	-0.334843677
1.645	-0.163567361
1.646	0.030400621
1.647	0.221811422
1.648	0.379665305
1.649	0.484320835
1.65	0.522013
1.651	0.482531214
1.652	0.375993077
1.653	0.216144128
1.654	0.022764093
1.655	-0.173048131
1.656	-0.345999775
1.657	-0.472427645
1.658	-0.531973344
1.659	-0.519756979
1.66	-0.435820007
1.661	-0.290136111
1.662	-0.107438496
1.663	0.090156327
1.664	0.274476162
1.665	0.415613253
1.666	0.498269348
1.667	0.509917182
1.668	0.448263208
1.669	0.325802933
1.67	0.156487239
1.671	-0.036581915
1.672	-0.225289229
1.673	-0.387375488
1.674	-0.496632393
1.675	-0.53530791
1.676	-0.501831218
1.677	-0.396347403
1.678	-0.23591288
1.679	-0.047003423
1.68	0.147161385
1.681	0.317530044
1.682	0.440644617
1.683	0.502764105
1.684	0.491854736
1.685	0.410426532
1.686	0.270822038
1.687	0.088016991
1.688	-0.108318122
1.689	-0.290036988
1.69	-0.434930057
1.691	-0.51827516
1.692	-0.530141204
1.693	-0.47046555
1.694	-0.344126577
1.695	-0.171584808
1.696	0.023253663
1.697	0.214886849
1.698	0.372444545
1.699	0.476844964
1.7	0.515052325
1.701	0.47714329
1.702	0.372762782
1.703	0.214734582
1.704	0.022088949
1.705	-0.174179625
1.706	-0.348319843
1.707	-0.476137157
1.708	-0.536882904
1.709	-0.525411857
1.71	-0.441614909
1.711	-0.295441433
1.712	-0.111878071
1.713	0.086433486
1.714	0.271001694
1.715	0.412051226
1.716	0.494676436
1.717	0.50650977
1.718	0.444805468
1.719	0.321369494
1.72	0.15009846
1.721	-0.044945507
1.722	-0.234179846
1.723	-0.394504115
1.724	-0.500276379
1.725	-0.53530791
1.726	-0.499419661
1.727	-0.393042956
1.728	-0.232374052
1.729	-0.042772597
1.73	0.152994075
1.731	0.325366653
1.732	0.44984168
1.733	0.511862375
1.734	0.499288888
1.735	0.415214553
1.736	0.27284392
1.737	0.087834184
1.738	-0.109796094
1.739	-0.29174945
1.74	-0.435818407
1.741	-0.51758683
1.742	-0.52802166
1.743	-0.468369725
1.744	-0.344279035
1.745	-0.175501125
1.746	0.016209606
1.747	0.207529752
1.748	0.367896453
1.749	0.476236662
1.75	0.51679249
1.751	0.478417715
1.752	0.372038593
1.753	0.212930736
1.754	0.021441102
1.755	-0.172157789
1.756	-0.343944104
1.757	-0.470820288
1.758	-0.53161045
1.759	-0.520225083
1.76	-0.436254096
1.761	-0.290168109
1.762	-0.107442023
1.763	0.089880409
1.764	0.274581719
1.765	0.417555107
1.766	0.503248398
1.767	0.517629731
1.768	0.456632993
1.769	0.332320076
1.77	0.16010802
1.771	-0.034344727
1.772	-0.221007205
1.773	-0.377979866
1.774	-0.481430549
1.775	-0.516166015
1.776	-0.481504508
1.777	-0.376097313
1.778	-0.214618556
1.779	-0.022466227
1.78	0.176208063
1.781	0.350233942
1.782	0.474698378
1.783	0.536217528
1.784	0.524125519
1.785	0.442003071
1.786	0.302174681
1.787	0.118759192
1.788	-0.078998804
1.789	-0.262354816
1.79	-0.407955379
1.791	-0.490234319
1.792	-0.499701362
1.793	-0.437832847
1.794	-0.310820325
1.795	-0.139130305
1.796	0.054840532
1.797	0.247414395
1.798	0.408070762
1.799	0.516249157
1.8	0.556816444
1.801	0.518897966
1.802	0.413303393
1.803	0.254765701
1.804	0.063098005
1.805	-0.131454542
1.806	-0.304426876
1.807	-0.431834482
1.808	-0.491994917
1.809	-0.479359105
1.81	-0.394806788
1.811	-0.249897477
1.812	-0.069959592
1.813	0.124457574
1.814	0.307538398
1.815	0.45016209
1.816	0.53549807
1.817	0.548217858
1.818	0.484409472
1.819	0.357497847
1.82	0.183690837
1.821	-0.012068178
1.822	-0.201130078
1.823	-0.361703147
1.824	-0.467911586
1.825	-0.502244648
1.826	-0.463973344
1.827	-0.354546956
1.828	-0.192185623
1.829	-0.003253919
1.83	0.190523557
1.831	0.361368389
1.832	0.485687949
1.833	0.54828627
1.834	0.535710228
1.835	0.450775714
1.836	0.307663397
1.837	0.123217048
1.838	-0.072233286
1.839	-0.251443674
1.84	-0.393534206
1.841	-0.474423669
1.842	-0.484280299
1.843	-0.423010974
1.844	-0.295637122
1.845	-0.122756954
1.846	0.072047192
1.847	0.263633206
1.848	0.420863431
1.849	0.523779597
1.85	0.558556608
1.851	0.515674574
1.852	0.406514096
1.853	0.245635834
1.854	0.052491494
1.855	-0.143096349
1.856	-0.317072009
1.857	-0.445918497
1.858	-0.508419365
1.859	-0.498817167
1.86	-0.417097698
1.861	-0.274104086
1.862	-0.095347537
1.863	0.097438696
1.864	0.277579145
1.865	0.416827005
1.866	0.500320411
1.867	0.514108275
1.868	0.453512655
1.869	0.329274741
1.87	0.155539342
1.871	-0.042396236
1.872	-0.23383542
1.873	-0.395331531
1.874	-0.501551709
1.875	-0.537048075
1.876	-0.502155524
1.877	-0.397168923
1.878	-0.237882766
1.879	-0.049218508
1.88	0.146154156
1.881	0.318276075
1.882	0.442248896
1.883	0.503451114
1.884	0.490102799
1.885	0.405861676
1.886	0.264052896
1.887	0.079827138
1.888	-0.117623347
1.889	-0.300631371
1.89	-0.446780415
1.891	-0.530660296
1.892	-0.542096581
1.893	-0.481751725
1.894	-0.355705808
1.895	-0.184826978
1.896	0.008037095
1.897	0.199068164
1.898	0.358086498
1.899	0.464902144
1.9	0.504611287
1.901	0.466612154
1.902	0.361740744
1.903	0.204707739
1.904	0.015112329
1.905	-0.177472541
1.906	-0.34926925
1.907	-0.476770779
1.908	-0.538325439
1.909	-0.527655479
1.91	-0.44469779
1.911	-0.300366939
1.912	-0.119933421
1.913	0.075294406
1.914	0.258856801
1.915	0.401768663
1.916	0.487687294
1.917	0.501835357
1.918	0.440155924
1.919	0.315147511
1.92	0.14250844
1.921	-0.052657732
1.922	-0.241262007
1.923	-0.401294299
1.924	-0.507724652
1.925	-0.544008767
1.926	-0.509115904
1.927	-0.403260081
1.928	-0.242850705
1.929	-0.053375664
1.93	0.142409407
1.931	0.315174327
1.932	0.440388376
1.933	0.503031319
1.934	0.490859003
1.935	0.407264214
1.936	0.265760263
1.937	0.082055922
1.938	-0.114661144
1.939	-0.297102577
1.94	-0.443220944
1.941	-0.527920624
1.942	-0.540968735
1.943	-0.482869032
1.944	-0.359567377
1.945	-0.191910461
1.946	-0.00274514
1.947	0.184309278
1.948	0.339074628
1.949	0.441479163
1.95	0.476768553
1.951	0.43384946
1.952	0.323816701
1.953	0.161824671
1.954	-0.032356663
1.955	-0.228322235
1.956	-0.402702349
1.957	-0.533448155
1.958	-0.599325237
1.959	-0.594193172
1.96	-0.516593322
1.961	-0.375091458
1.962	-0.194879576
1.963	0.002378046
1.964	0.189697236
1.965	0.337706314
1.966	0.432160075
1.967	0.459877983
1.968	0.416092939
1.969	0.311316965
1.97	0.158597157
1.971	-0.018037851
1.972	-0.188157283
1.973	-0.327728179
1.974	-0.410579007
1.975	-0.420456575
1.976	-0.357274629
1.977	-0.221841733
1.978	-0.030505794
1.979	0.191257814
1.98	0.420021651
1.981	0.625363586
1.982	0.78168061
1.983	0.873294255
1.984	0.887380479
1.985	0.82634531
1.986	0.702641147
1.987	0.531047588
1.988	0.340103124
1.989	0.156607995
1.99	0.001576507
1.991	-0.101318443
1.992	-0.142450138
1.993	-0.121560005
1.994	-0.042533435
1.995	0.076707519
1.996	0.215879905
1.997	0.353396973
1.998	0.46149101
1.999	0.52251378
2	0.523753182
2.001	0.455684056
2.002	0.32882954
2.003	0.156584743
2.004	-0.042547072
2.005	-0.239584377
2.006	-0.411551508
2.007	-0.535851139
2.008	-0.592346494
2.009	-0.576365682
2.01	-0.487874115
2.011	-0.337598878
2.012	-0.151028004
2.013	0.050389242
2.014	0.238250721
2.015	0.381967183
2.016	0.465774808
2.017	0.476028678
2.018	0.411357574
2.019	0.28638036
2.02	0.116117466
2.021	-0.07575456
2.022	-0.262277274
2.023	-0.422820657
2.024	-0.530970168
2.025	-0.568371172
2.026	-0.533066097
2.027	-0.425421192
2.028	-0.263528797
2.029	-0.074324181
2.03	0.119471324
2.031	0.289719064
2.032	0.413126363
2.033	0.475182411
2.034	0.463081411
2.035	0.379120807
2.036	0.236361594
2.037	0.050848426
2.038	-0.147379704
2.039	-0.330122451
2.04	-0.475080541
2.041	-0.557562179
2.042	-0.567840204
2.043	-0.506707494
2.044	-0.380202064
2.045	-0.209033638
2.046	-0.016103989
2.047	0.174749599
2.048	0.333758507
2.049	0.441144127
2.05	0.481989063
2.051	0.444866838
2.052	0.339276839
2.053	0.17967907
2.054	-0.012779437
2.055	-0.206223468
2.056	-0.375711742
2.057	-0.499137769
2.058	-0.557792301
2.059	-0.547100186
2.06	-0.466050544
2.061	-0.322979946
2.062	-0.141581712
2.063	0.055618814
2.064	0.239639312
2.065	0.380413126
2.066	0.46304717
2.067	0.47546872
2.068	0.414768152
2.069	0.291898256
2.07	0.12003104
2.071	-0.076869827
2.072	-0.2684927
2.073	-0.430592715
2.074	-0.537036267
2.075	-0.571851518
2.076	-0.53528499
2.077	-0.428260786
2.078	-0.267053157
2.079	-0.077054362
2.08	0.118590036
2.081	0.290118026
2.082	0.413212217
2.083	0.473886544
2.084	0.460787063
2.085	0.377259573
2.086	0.236144845
2.087	0.052527783
2.088	-0.144332918
2.089	-0.326646504
2.09	-0.472213488
2.091	-0.556231723
2.092	-0.56850191
2.093	-0.50886634
2.094	-0.382438661
2.095	-0.209804798
2.096	-0.014932307
2.097	0.176637091
2.098	0.334012662
2.099	0.437829021
2.1	0.475028371
2.101	0.436325986
2.102	0.331981476
2.103	0.175028656
2.104	-0.016241137
2.105	-0.212102937
2.106	-0.387045652
2.107	-0.51570212
2.108	-0.575808959
2.109	-0.561943918
2.11	-0.475859352
2.111	-0.329993556
2.112	-0.149920796
2.113	0.04371382
2.114	0.225652246
2.115	0.3678599
2.116	0.454075047
2.117	0.469104696
2.118	0.408321195
2.119	0.28378779
2.12	0.111098631
2.121	-0.084629532
2.122	-0.274122398
2.123	-0.434930631
2.124	-0.541535753
2.125	-0.577072029
2.126	-0.540739657
2.127	-0.433485957
2.128	-0.272339228
2.129	-0.082865781
2.13	0.112739171
2.131	0.285800977
2.132	0.411796202
2.133	0.47511906
2.134	0.462767435
2.135	0.377868118
2.136	0.234612196
2.137	0.049724228
2.138	-0.146970474
2.139	-0.328260644
2.14	-0.472856726
2.141	-0.55637366
2.142	-0.568450871
2.143	-0.508723411
2.144	-0.382347311
2.145	-0.209959221
2.146	-0.015305307
2.147	0.176498215
2.148	0.33469668
2.149	0.439411093
2.15	0.476768553
2.151	0.437098519
2.152	0.331166616
2.153	0.173161147
2.154	-0.017691811
2.155	-0.211685734
2.156	-0.384299372
2.157	-0.511501289
2.158	-0.571863274
2.159	-0.559789941
2.16	-0.47600501
2.161	-0.331656944
2.162	-0.151509695
2.163	0.043660788
2.164	0.227597177
2.165	0.371007679
2.166	0.456856977
2.167	0.470190684
2.168	0.40748138
2.169	0.281991195
2.17	0.109823515
2.171	-0.084413525
2.172	-0.272559159
2.173	-0.433040565
2.174	-0.540398152
2.175	-0.577072029
2.176	-0.541412267
2.177	-0.43400117
2.178	-0.272176197
2.179	-0.082180212
2.18	0.113223262
2.181	0.285261018
2.182	0.409805865
2.183	0.471896364
2.184	0.459091538
2.185	0.374718043
2.186	0.232712078
2.187	0.04920458
2.188	-0.146691128
2.189	-0.328374044
2.19	-0.474792667
2.191	-0.561238128
2.192	-0.576350327
2.193	-0.518433305
2.194	-0.391796128
2.195	-0.217368453
2.196	-0.020269935
2.197	0.172917565
2.198	0.331128879
2.199	0.435481667
2.2	0.473288207
2.201	0.434921605
2.202	0.329857601
2.203	0.171110148
2.204	-0.02166989
2.205	-0.216993855
2.206	-0.388989279
2.207	-0.514262976
2.208	-0.57350675
2.209	-0.562400318
2.21	-0.480619167
2.211	-0.336956631
2.212	-0.155032888
2.213	0.042816904
2.214	0.227527061
2.215	0.36857075
2.216	0.450404194
2.217	0.46072192
2.218	0.397146473
2.219	0.271726648
2.22	0.098811608
2.221	-0.097145784
2.222	-0.28645778
2.223	-0.44626548
2.224	-0.551803953
2.225	-0.58751305
2.226	-0.552806207
2.227	-0.447228938
2.228	-0.286066105
2.229	-0.094782512
2.23	0.102417199
2.231	0.274553548
2.232	0.396744242
2.233	0.455450074
2.234	0.440429294
2.235	0.355984048
2.236	0.215173523
2.237	0.032489392
2.238	-0.163645911
2.239	-0.345793547
2.24	-0.491506154
2.241	-0.575518024
2.242	-0.587576854
2.243	-0.528082073
2.244	-0.402649953
2.245	-0.231556131
2.246	-0.037542625
2.247	0.155179995
2.248	0.315799184
2.249	0.423399257
2.25	0.462847168
2.251	0.423802792
2.252	0.317498238
2.253	0.159244471
2.254	-0.030934917
2.255	-0.223271295
2.256	-0.393833957
2.257	-0.519169615
2.258	-0.577750186
2.259	-0.563485037
2.26	-0.476705427
2.261	-0.328616165
2.262	-0.144626557
2.263	0.053782249
2.264	0.239971844
2.265	0.384531494
2.266	0.470733425
2.267	0.484115181
2.268	0.421602732
2.269	0.296973839
2.27	0.126556953
2.271	-0.065218405
2.272	-0.250557375
2.273	-0.408451046
2.274	-0.513847842
2.275	-0.549229277
2.276	-0.51287409
2.277	-0.404980995
2.278	-0.242383644
2.279	-0.05100715
2.28	0.146568349
2.281	0.321226739
2.282	0.44806637
2.283	0.511623749
2.284	0.499446737
2.285	0.415459578
2.286	0.274336121
2.287	0.092184927
2.288	-0.102368696
2.289	-0.283035864
2.29	-0.42844545
2.291	-0.512875916
2.292	-0.524733525
2.293	-0.463636291
2.294	-0.335743331
2.295	-0.162956569
2.296	0.030828613
2.297	0.221768539
2.298	0.380524422
2.299	0.487812589
2.3	0.528973692
2.301	0.49258849
2.302	0.388366561
2.303	0.23050541
2.304	0.039138324
2.305	-0.154770503
2.306	-0.326322894
2.307	-0.452020663
2.308	-0.511188912
2.309	-0.498766806
2.31	-0.41516207
2.311	-0.270788736
2.312	-0.090165352
2.313	0.105785548
2.314	0.290265006
2.315	0.43360487
2.316	0.519305709
2.317	0.533022726
2.318	0.471407879
2.319	0.347460639
2.32	0.176561306
2.321	-0.016988692
2.322	-0.204763874
2.323	-0.365043886
2.324	-0.472308541
2.325	-0.50920534
2.326	-0.47431432
2.327	-0.367668071
2.328	-0.206052994
2.329	-0.015600595
2.33	0.180678804
2.331	0.353248115
2.332	0.477483386
2.333	0.53850706
2.334	0.524009632
2.335	0.437665764
2.336	0.293799243
2.337	0.108883756
2.338	-0.087145269
2.339	-0.267219666
2.34	-0.410663644
2.341	-0.493601752
2.342	-0.506060969
2.343	-0.447311888
2.344	-0.321494702
2.345	-0.148816048
2.346	0.046666366
2.347	0.239092206
2.348	0.397183218
2.349	0.501668518
2.35	0.539414731
2.351	0.50043748
2.352	0.394648905
2.353	0.23538525
2.354	0.042389292
2.355	-0.15276837
2.356	-0.324564922
2.357	-0.449828063
2.358	-0.509115278
2.359	-0.498112838
2.36	-0.416343181
2.361	-0.272581592
2.362	-0.090744669
2.363	0.107028378
2.364	0.291943783
2.365	0.43365737
2.366	0.516958025
2.367	0.529221395
2.368	0.467373192
2.369	0.342954248
2.37	0.169936696
2.371	-0.026852774
2.372	-0.216816164
2.373	-0.376462398
2.374	-0.480676206
2.375	-0.514425851
2.376	-0.478421419
2.377	-0.37295628
2.378	-0.213491754
2.379	-0.024751993
2.38	0.170591081
2.381	0.342550383
2.382	0.46635266
2.383	0.527675895
2.384	0.51484248
2.385	0.431294853
2.386	0.290097575
2.387	0.106313609
2.388	-0.090585542
2.389	-0.27267235
2.39	-0.417752605
2.391	-0.500985926
2.392	-0.512757872
2.393	-0.453713683
2.394	-0.329150072
2.395	-0.158998255
2.396	0.034348624
2.397	0.226635319
2.398	0.386525726
2.399	0.492885754
2.4	0.530713874
2.401	0.490171768
2.402	0.383319203
2.403	0.225514917
2.404	0.036044571
2.405	-0.156392387
2.406	-0.328735599
2.407	-0.457266737
2.408	-0.51931889
2.409	-0.507695019
2.41	-0.422195105
2.411	-0.274612065
2.412	-0.091532602
2.413	0.104955844
2.414	0.288360941
2.415	0.430183685
2.416	0.514715412
2.417	0.527467563
2.418	0.464456038
2.419	0.338250916
2.42	0.164534321
2.421	-0.031471487
2.422	-0.220404954
2.423	-0.380063953
2.424	-0.485231375
2.425	-0.519646361
2.426	-0.483326684
2.427	-0.377482443
2.428	-0.219142076
2.429	-0.033480378
2.43	0.158183141
2.431	0.327939242
2.432	0.451937278
2.433	0.514924787
2.434	0.503486937
2.435	0.420046693
2.436	0.278019721
2.437	0.093554551
2.438	-0.103267917
2.439	-0.284787019
2.44	-0.429489702
2.441	-0.512895184
2.442	-0.525040459
2.443	-0.465866436
2.444	-0.340281563
2.445	-0.168486685
2.446	0.026401384
2.447	0.219570878
2.448	0.379808842
2.449	0.48661781
2.45	0.525493346
2.451	0.486344682
2.452	0.380252356
2.453	0.221738558
2.454	0.030240192
2.455	-0.164352317
2.456	-0.337673116
2.457	-0.465683528
2.458	-0.526581473
2.459	-0.514385628
2.46	-0.429460661
2.461	-0.283163594
2.462	-0.101260618
2.463	0.094610156
2.464	0.277931623
2.465	0.420044171
2.466	0.505269463
2.467	0.519214985
2.468	0.457664046
2.469	0.332679667
2.47	0.159561666
2.471	-0.036429199
2.472	-0.225574338
2.473	-0.385488691
2.474	-0.491185969
2.475	-0.526607054
2.476	-0.491376877
2.477	-0.385665478
2.478	-0.225512726
2.479	-0.036142172
2.48	0.159781177
2.481	0.332415669
2.482	0.456655357
2.483	0.517585821
2.484	0.503506449
2.485	0.418782458
2.486	0.277776035
2.487	0.096051974
2.488	-0.097881271
2.489	-0.277717361
2.49	-0.422191731
2.491	-0.505959133
2.492	-0.517898684
2.493	-0.457524561
2.494	-0.330358659
2.495	-0.157766694
2.496	0.036294898
2.497	0.22715481
2.498	0.384592115
2.499	0.489252272
2.5	0.527233528
2.501	0.488264207
2.502	0.382927285
2.503	0.225485545
2.504	0.035496595
2.505	-0.1569808
2.506	-0.327965101
2.507	-0.45445288
2.508	-0.515609935
2.509	-0.505553703
2.51	-0.423579278
2.511	-0.27952446
2.512	-0.098386725
2.513	0.097778827
2.514	0.281422055
2.515	0.42333681
2.516	0.508376864
2.517	0.523090623
2.518	0.46348585
2.519	0.340709044
2.52	0.168580656
2.521	-0.028391627
2.522	-0.219823485
2.523	-0.381779702
2.524	-0.487806398
2.525	-0.521386543
2.526	-0.482898803
2.527	-0.373756846
2.528	-0.211191963
2.529	-0.021056832
2.53	0.174269566
2.531	0.34593018
2.532	0.4700328
2.533	0.532429327
2.534	0.521015301
2.535	0.438801313
2.536	0.298696144
2.537	0.115585915
2.538	-0.081277906
2.539	-0.264088824
2.54	-0.410395821
2.541	-0.494388458
2.542	-0.50526795
2.543	-0.443138446
2.544	-0.313893988
2.545	-0.13930472
2.546	0.05623621
2.547	0.247917279
2.548	0.405829278
2.549	0.511479204
2.55	0.551595934
2.551	0.515408768
2.552	0.412176852
2.553	0.2549047
2.554	0.063094838
2.555	-0.131745643
2.556	-0.30391262
2.557	-0.429652525
2.558	-0.488627432
2.559	-0.476019966
2.56	-0.39161802
2.561	-0.245024958
2.562	-0.061057201
2.563	0.13786883
2.564	0.323306409
2.565	0.465392402
2.566	0.54933833
2.567	0.562693531
2.568	0.502441277
2.569	0.380172484
2.57	0.209489882
2.571	0.014458868
2.572	-0.17497713
2.573	-0.33547723
2.574	-0.441218765
2.575	-0.476142078
2.576	-0.440504523
2.577	-0.334816984
2.578	-0.175228798
2.579	0.013065335
2.58	0.207590026
2.581	0.378739948
2.582	0.501908169
2.583	0.562682001
2.584	0.549137754
2.585	0.46482841
2.586	0.323180801
2.587	0.13932692
2.588	-0.057439985
2.589	-0.239659554
2.59	-0.385479579
2.591	-0.469539324
2.592	-0.481292803
2.593	-0.420588113
2.594	-0.292648809
2.595	-0.118612822
2.596	0.077451668
2.597	0.270298025
2.598	0.428914911
2.599	0.533677355
2.6	0.570737811
2.601	0.529907465
2.602	0.421955279
2.603	0.261259664
2.604	0.067931865
2.605	-0.126895096
2.606	-0.298299269
2.607	-0.422893261
2.608	-0.48043292
2.609	-0.466361581
2.61	-0.381031515
2.611	-0.234521803
2.612	-0.051117975
2.613	0.148159868
2.614	0.335827986
2.615	0.481474563
2.616	0.568176439
2.617	0.581427509
2.618	0.518007128
2.619	0.391001232
2.62	0.215736176
2.621	0.016675885
2.622	-0.177280173
2.623	-0.343517579
2.624	-0.455443727
2.625	-0.495283956
2.626	-0.462136665
2.627	-0.357111737
2.628	-0.198014644
2.629	-0.010970898
2.63	0.182021276
2.631	0.35253549
2.632	0.476401033
2.633	0.538182685
2.634	0.524550739
2.635	0.438477059
2.636	0.293941233
2.637	0.107189103
2.638	-0.092011917
2.639	-0.276441492
2.64	-0.424384244
2.641	-0.510346663
2.642	-0.523387314
2.643	-0.463235643
2.644	-0.335759817
2.645	-0.16282898
2.646	0.031346772
2.647	0.222011407
2.648	0.379062463
2.649	0.48359049
2.65	0.522013
2.651	0.484152239
2.652	0.380302648
2.653	0.223882588
2.654	0.033625583
2.655	-0.16069507
2.656	-0.33444449
2.657	-0.463144937
2.658	-0.524674851
2.659	-0.512892732
2.66	-0.428032821
2.661	-0.281466956
2.662	-0.099165437
2.663	0.096848292
2.664	0.279554579
2.665	0.420098445
2.666	0.503163205
2.667	0.515180194
2.668	0.452831367
2.669	0.328519859
2.67	0.157108271
2.671	-0.037138136
2.672	-0.225537959
2.673	-0.38621015
2.674	-0.493925554
2.675	-0.531827564
2.676	-0.498617026
2.677	-0.394009353
2.678	-0.234274847
2.679	-0.045270479
2.68	0.149873267
2.681	0.321633004
2.682	0.445828609
2.683	0.508148637
2.684	0.496449746
2.685	0.413639976
2.686	0.272684019
2.687	0.089148747
2.688	-0.107105344
2.689	-0.28821683
2.69	-0.432505353
2.691	-0.515909426
2.692	-0.52887916
2.693	-0.471153915
2.694	-0.34691061
2.695	-0.175481596
2.696	0.020117524
2.697	0.214218239
2.698	0.374768387
2.699	0.480921248
2.7	0.518532671
2.701	0.478337791
2.702	0.371700984
2.703	0.213038519
2.704	0.021606377
2.705	-0.172966433
2.706	-0.346532083
2.707	-0.475386083
2.708	-0.537994681
2.709	-0.528413109
2.71	-0.446666963
2.711	-0.303673907
2.712	-0.125435318
2.713	0.066065311
2.714	0.244249625
2.715	0.380810575
2.716	0.461655032
2.717	0.473427779
2.718	0.411291527
2.719	0.286120066
2.72	0.111114092
2.721	-0.08960419
2.722	-0.285061224
2.723	-0.45153936
2.724	-0.562208524
2.725	-0.599694253
2.726	-0.564770818
2.727	-0.457663733
2.728	-0.294352976
2.729	-0.100133131
2.73	0.10423984
2.731	0.289984314
2.732	0.431605369
2.733	0.513559047
2.734	0.521794512
2.735	0.458345908
2.736	0.336657071
2.737	0.172222052
2.738	-0.004833544
2.739	-0.165832983
2.74	-0.287623188
2.741	-0.343962381
2.742	-0.324211992
2.743	-0.2294898
2.744	-0.067318707
2.745	0.139705382
2.746	0.367250624
2.747	0.590694914
2.748	0.779762737
2.749	0.914014052
2.75	0.97793796
2.751	0.960082125
2.752	0.87036298
2.753	0.723354402
2.754	0.539110493
2.755	0.347603167
2.756	0.172409459
2.757	0.035604084
2.758	-0.043236394
2.759	-0.059386763
2.76	-0.013064576
2.761	0.08616447
2.762	0.215448511
2.763	0.356136019
2.764	0.484136466
2.765	0.572654293
2.766	0.607579675
2.767	0.576008387
2.768	0.475491849
2.769	0.319458351
2.77	0.1234503
2.771	-0.08763943
2.772	-0.285326961
2.773	-0.448711487
2.774	-0.553280867
2.775	-0.584032704
2.776	-0.542214954
2.777	-0.429056657
2.778	-0.262654567
2.779	-0.068951859
2.78	0.130282575
2.781	0.305736534
2.782	0.433552996
2.783	0.498829967
2.784	0.488035842
2.785	0.404751238
2.786	0.262440166
2.787	0.076548741
2.788	-0.122147524
2.789	-0.305969769
2.79	-0.452731792
2.791	-0.536422817
2.792	-0.546992663
2.793	-0.484977812
2.794	-0.356653232
2.795	-0.183935288
2.796	0.009465643
2.797	0.199463317
2.798	0.356557622
2.799	0.461784727
2.8	0.501130958
2.801	0.463761308
2.802	0.359119968
2.803	0.200800868
2.804	0.008481671
2.805	-0.186940557
2.806	-0.359983589
2.807	-0.486558336
2.808	-0.545977888
2.809	-0.533575415
2.81	-0.450380457
2.811	-0.307162914
2.812	-0.128123137
2.813	0.066405402
2.814	0.250223696
2.815	0.393937445
2.816	0.48054752
2.817	0.494864666
2.818	0.432774498
2.819	0.306918897
2.82	0.133154739
2.821	-0.063306313
2.822	-0.253191542
2.823	-0.414172614
2.824	-0.520785475
2.825	-0.55618997
2.826	-0.519552664
2.827	-0.411614181
2.828	-0.249508967
2.829	-0.05932984
2.83	0.136062801
2.831	0.307535564
2.832	0.430872659
2.833	0.491493059
2.834	0.477439128
2.835	0.39237052
2.836	0.250127269
2.837	0.066455466
2.838	-0.129558727
2.839	-0.310895623
2.84	-0.45586719
2.841	-0.539374769
2.842	-0.550761405
2.843	-0.490004232
2.844	-0.363060957
2.845	-0.19149204
2.846	0.000721801
2.847	0.189328899
2.848	0.345221747
2.849	0.450184663
2.85	0.49068992
2.851	0.45552099
2.852	0.35302594
2.853	0.195654091
2.854	0.002903304
2.855	-0.193492967
2.856	-0.367124998
2.857	-0.493663991
2.858	-0.552921173
2.859	-0.540705573
2.86	-0.457792802
2.861	-0.314223755
2.862	-0.133908762
2.863	0.062169677
2.864	0.246770496
2.865	0.390066798
2.866	0.475701398
2.867	0.489644712
2.868	0.428396498
2.869	0.304293756
2.87	0.132504176
2.871	-0.062098971
2.872	-0.250129129
2.873	-0.409323884
2.874	-0.514910875
2.875	-0.550969459
2.876	-0.516926845
2.877	-0.412617253
2.878	-0.253525586
2.879	-0.064504114
2.88	0.131655808
2.881	0.304868234
2.882	0.42976982
2.883	0.491292431
2.884	0.477851549
2.885	0.393819993
2.886	0.253373406
2.887	0.071806944
2.888	-0.122756048
2.889	-0.303994544
2.89	-0.450099765
2.891	-0.535127646
2.892	-0.547528849
2.893	-0.486998703
2.894	-0.359783378
2.895	-0.187675111
2.896	0.005535501
2.897	0.195840999
2.898	0.353714115
2.899	0.459741402
2.9	0.499390776
2.901	0.461794621
2.902	0.35703296
2.903	0.199233508
2.904	0.007947844
2.905	-0.186791508
2.906	-0.360450389
2.907	-0.488970067
2.908	-0.550628146
2.909	-0.539428747
2.91	-0.455772258
2.911	-0.310863869
2.912	-0.129897075
2.913	0.065956377
2.914	0.250236843
2.915	0.393693203
2.916	0.479516015
2.917	0.492751469
2.918	0.429661533
2.919	0.30336087
2.92	0.130027968
2.921	-0.065208249
2.922	-0.253529012
2.923	-0.413144101
2.924	-0.518982081
2.925	-0.554449788
2.926	-0.518893062
2.927	-0.413065272
2.928	-0.253553445
2.929	-0.065290951
2.93	0.129997653
2.931	0.303341341
2.932	0.429303455
2.933	0.491454627
2.934	0.476773387
2.935	0.389486616
2.936	0.245077789
2.937	0.060537464
2.938	-0.135166942
2.939	-0.316101439
2.94	-0.461428093
2.941	-0.545848611
2.942	-0.557839532
2.943	-0.496810241
2.944	-0.368857946
2.945	-0.195918837
2.946	-0.002001821
2.947	0.188797513
2.948	0.346971893
2.949	0.453079801
2.95	0.492430084
2.951	0.453975055
2.952	0.347810716
2.953	0.188473798
2.954	-0.003760193
2.955	-0.198136791
2.956	-0.369828447
2.957	-0.495173773
2.958	-0.553392024
2.959	-0.539488047
2.96	-0.454383563
2.961	-0.309119948
2.962	-0.128308457
2.963	0.067465035
2.964	0.252028377
2.965	0.396092674
2.966	0.482611573
2.967	0.496377717
2.968	0.433459229
2.969	0.306976093
2.97	0.133359631
2.971	-0.061965139
2.972	-0.250101445
2.973	-0.409576283
2.974	-0.515885619
2.975	-0.552709623
2.976	-0.518991506
2.977	-0.414563889
2.978	-0.255200416
2.979	-0.065810918
2.98	0.131055377
2.981	0.305425705
2.982	0.43146251
2.983	0.493246092
2.984	0.478724266
2.985	0.392644499
2.986	0.250095306
2.987	0.067010691
2.988	-0.128635934
2.989	-0.311113642
2.99	-0.458819733
2.991	-0.545240465
2.992	-0.557865808
2.993	-0.495892032
2.994	-0.366130326
2.995	-0.191782383
2.996	0.002052262
2.997	0.191081619
2.998	0.346764169
2.999	0.451206516
3	0.49068992
3.001	0.453769418
3.002	0.349143572
3.003	0.190176418
3.004	-0.002790337
3.005	-0.197969986
3.006	-0.369825838
3.007	-0.495199353
3.008	-0.554457405
3.009	-0.54294556
3.01	-0.460384432
3.011	-0.316104343
3.012	-0.134372391
3.013	0.062627734
3.014	0.24661656
3.015	0.387859782
3.016	0.471296739
3.017	0.484292281
3.018	0.423618128
3.019	0.300576593
3.02	0.12891105
3.021	-0.066993233
3.022	-0.256793792
3.023	-0.416711518
3.024	-0.521102825
3.025	-0.554449788
3.026	-0.517529843
3.027	-0.411346427
3.028	-0.251806985
3.029	-0.063427288
3.03	0.131883925
3.031	0.304883781
3.032	0.430657475
3.033	0.494050953
3.034	0.482623363
3.035	0.399627416
3.036	0.258722846
3.037	0.075705697
3.038	-0.11983907
3.039	-0.300340298
3.04	-0.444076115
3.041	-0.526239168
3.042	-0.536515054
3.043	-0.474847915
3.044	-0.346563489
3.045	-0.17268299
3.046	0.022729395
3.047	0.214743747
3.048	0.37325391
3.049	0.479513546
3.05	0.520272836
3.051	0.485029216
3.052	0.383084003
3.053	0.227470439
3.054	0.037601454
3.055	-0.155319658
3.056	-0.325840339
3.057	-0.450531923
3.058	-0.509352842
3.059	-0.497441463
3.06	-0.414357018
3.061	-0.269236679
3.062	-0.086368105
3.063	0.111951799
3.064	0.297205665
3.065	0.439362853
3.066	0.523328275
3.067	0.53652314
3.068	0.47582605
3.069	0.352757578
3.07	0.181147447
3.071	-0.014651233
3.072	-0.204514084
3.073	-0.365072771
3.074	-0.4707853
3.075	-0.505724994
3.076	-0.469890776
3.077	-0.363543982
3.078	-0.202771572
3.079	-0.013254057
3.08	0.181720638
3.081	0.352266363
3.082	0.474338006
3.083	0.534658342
3.084	0.522298996
3.085	0.44069124
3.086	0.302020867
3.087	0.119968464
3.088	-0.076973855
3.089	-0.260724434
3.09	-0.407773462
3.091	-0.491522014
3.092	-0.501457299
3.093	-0.438900279
3.094	-0.310960957
3.095	-0.139378459
3.096	0.05293344
3.097	0.242824446
3.098	0.400788772
3.099	0.507015279
3.1	0.546375406
3.101	0.507612226
3.102	0.401356659
3.103	0.242599054
3.104	0.051629561
3.105	-0.141251773
3.106	-0.312343636
3.107	-0.438888923
3.108	-0.500010417
3.109	-0.489680083
3.11	-0.407107286
3.111	-0.262224269
3.112	-0.080109443
3.113	0.117303411
3.114	0.302477528
3.115	0.4458216
3.116	0.531452358
3.117	0.545193217
3.118	0.483100318
3.119	0.357389907
3.12	0.183508938
3.121	-0.012820589
3.122	-0.201442629
3.123	-0.360194269
3.124	-0.46493148
3.125	-0.500504484
3.126	-0.466626066
3.127	-0.362430257
3.128	-0.202953836
3.129	-0.013418634
3.13	0.182634778
3.131	0.354695223
3.132	0.478243328
3.133	0.539665251
3.134	0.527605204
3.135	0.445025434
3.136	0.304065947
3.137	0.119343342
3.138	-0.079093645
3.139	-0.262317445
3.14	-0.407683904
3.141	-0.490697224
3.142	-0.502263429
3.143	-0.442928097
3.144	-0.317510307
3.145	-0.146203412
3.146	0.04732111
3.147	0.237735317
3.148	0.394517245
3.149	0.499312348
3.15	0.539414731
3.151	0.504154208
3.152	0.401841684
3.153	0.244257103
3.154	0.050707201
3.155	-0.146377386
3.156	-0.320180784
3.157	-0.446815717
3.158	-0.507044599
3.159	-0.497179065
3.16	-0.416894409
3.161	-0.2742659
3.162	-0.092157938
3.163	0.107733041
3.164	0.295764747
3.165	0.439800524
3.166	0.523250629
3.167	0.533715648
3.168	0.469992229
3.169	0.345636237
3.17	0.174830793
3.171	-0.019579105
3.172	-0.209452407
3.173	-0.371851251
3.174	-0.479516032
3.175	-0.514425851
3.176	-0.476295875
3.177	-0.367424993
3.178	-0.206497343
3.179	-0.019678121
3.18	0.172070667
3.181	0.342060107
3.182	0.467498591
3.183	0.533113345
3.184	0.52428862
3.185	0.442018166
3.186	0.299109034
3.187	0.112340295
3.188	-0.086717353
3.189	-0.269142982
3.19	-0.413149822
3.191	-0.494905028
3.192	-0.505399401
3.193	-0.445177788
3.194	-0.319286781
3.195	-0.148000523
3.196	0.04535603
3.197	0.235914932
3.198	0.393054016
3.199	0.497542359
3.2	0.535934385
3.201	0.498012133
3.202	0.393561317
3.203	0.235669316
3.204	0.043493995
3.205	-0.152023174
3.206	-0.325345733
3.207	-0.452404965
3.208	-0.512599015
3.209	-0.501176694
3.21	-0.418416259
3.211	-0.274292315
3.212	-0.093126233
3.213	0.103704705
3.214	0.288510999
3.215	0.431136465
3.216	0.515300254
3.217	0.527192366
3.218	0.463794036
3.219	0.337958364
3.22	0.164872548
3.221	-0.030879912
3.222	-0.220226133
3.223	-0.380887717
3.224	-0.487391943
3.225	-0.523126707
3.226	-0.487523185
3.227	-0.381011151
3.228	-0.220175563
3.229	-0.030587739
3.23	0.165151944
3.231	0.337544587
3.232	0.461777353
3.233	0.522821757
3.234	0.508483551
3.235	0.422685276
3.236	0.279763363
3.237	0.095763101
3.238	-0.10012779
3.239	-0.281325784
3.24	-0.426862979
3.241	-0.511888929
3.242	-0.525392989
3.243	-0.466313863
3.244	-0.339383196
3.245	-0.165770821
3.246	0.029876913
3.247	0.221828273
3.248	0.379375918
3.249	0.483729906
3.25	0.522013
3.251	0.484379857
3.252	0.380647352
3.253	0.223704601
3.254	0.03238427
3.255	-0.162616886
3.256	-0.335680727
3.257	-0.462376665
3.258	-0.521717805
3.259	-0.508902911
3.26	-0.424646241
3.261	-0.279563535
3.262	-0.098398493
3.263	0.097607735
3.264	0.281466817
3.265	0.423834668
3.266	0.508893312
3.267	0.522671368
3.268	0.461427414
3.269	0.337353523
3.27	0.165519234
3.271	-0.029108364
3.272	-0.217073362
3.273	-0.376423497
3.274	-0.482624094
3.275	-0.519646361
3.276	-0.486449266
3.277	-0.382059246
3.278	-0.221949064
3.279	-0.032002573
3.28	0.163850178
3.281	0.335188121
3.282	0.457855093
3.283	0.518770827
3.284	0.50711395
3.285	0.426172231
3.286	0.288040148
3.287	0.10664913
3.288	-0.089062641
3.289	-0.270941872
3.29	-0.416251518
3.291	-0.499560868
3.292	-0.510696776
3.293	-0.44982902
3.294	-0.322114864
3.295	-0.148265847
3.296	0.04778548
3.297	0.240691076
3.298	0.399551004
3.299	0.505227606
3.3	0.544635241
3.301	0.507788125
3.302	0.404617805
3.303	0.24817126
3.304	0.057390274
3.305	-0.136916914
3.306	-0.309331602
3.307	-0.435807452
3.308	-0.495443979
3.309	-0.483181478
3.31	-0.399168407
3.311	-0.253565496
3.312	-0.07135493
3.313	0.125502391
3.314	0.309223002
3.315	0.450087
3.316	0.53287079
3.317	0.544788238
3.318	0.483204902
3.319	0.360648739
3.32	0.191240772
3.321	-0.00158018
3.322	-0.189165016
3.323	-0.348875262
3.324	-0.454332871
3.325	-0.488323281
3.326	-0.450725874
3.327	-0.342893331
3.328	-0.181985679
3.329	0.006929715
3.33	0.202704985
3.331	0.376749212
3.332	0.503764777
3.333	0.567421453
3.334	0.554586664
3.335	0.469673418
3.336	0.32825247
3.337	0.146643851
3.338	-0.046975414
3.339	-0.227395471
3.34	-0.37381585
3.341	-0.459798494
3.342	-0.472896462
3.343	-0.412434745
3.344	-0.284965458
3.345	-0.113123714
3.346	0.079251218
3.347	0.268959848
3.348	0.42683778
3.349	0.533170558
3.35	0.572477993
3.351	0.533174923
3.352	0.426156441
3.353	0.266878979
3.354	0.075799685
3.355	-0.116975085
3.356	-0.28787809
3.357	-0.413724665
3.358	-0.473033374
3.359	-0.459899095
3.36	-0.374714704
3.361	-0.229079257
3.362	-0.048895031
3.363	0.144819281
3.364	0.326529592
3.365	0.468491838
3.366	0.555468302
3.367	0.572549274
3.368	0.514540816
3.369	0.392575426
3.37	0.221390984
3.371	0.026323477
3.372	-0.162792524
3.373	-0.323891478
3.374	-0.432452835
3.375	-0.472661732
3.376	-0.443510662
3.377	-0.34367955
3.378	-0.188130572
3.379	-0.002073557
3.38	0.191012076
3.381	0.360633036
3.382	0.482216542
3.383	0.541945218
3.384	0.528286736
3.385	0.444312706
3.386	0.302396612
3.387	0.117298731
3.388	-0.081022811
3.389	-0.264047784
3.39	-0.409538199
3.391	-0.493263204
3.392	-0.506349904
3.393	-0.449348621
3.394	-0.326741106
3.395	-0.157934697
3.396	0.034401859
3.397	0.225286569
3.398	0.383352818
3.399	0.488653499
3.4	0.527233528
3.401	0.488783281
3.402	0.383537447
3.403	0.225183568
3.404	0.033522688
3.405	-0.160273345
3.406	-0.331257548
3.407	-0.456410854
3.408	-0.515977351
3.409	-0.505192513
3.41	-0.423396058
3.411	-0.27954571
3.412	-0.097728187
3.413	0.099994529
3.414	0.285002933
3.415	0.426924226
3.416	0.510222603
3.417	0.522105758
3.418	0.459880279
3.419	0.335669876
3.42	0.163484576
3.421	-0.032708984
3.422	-0.223396224
3.423	-0.385178089
3.424	-0.491753526
3.425	-0.526607054
3.426	-0.490068019
3.427	-0.383593669
3.428	-0.224011169
3.429	-0.036172657
3.43	0.158370038
3.431	0.330698338
3.432	0.455668823
3.433	0.517448301
3.434	0.503465095
3.435	0.418024115
3.436	0.276117725
3.437	0.09386857
3.438	-0.100452726
3.439	-0.281371312
3.44	-0.428054819
3.441	-0.514697117
3.442	-0.528966528
3.443	-0.469331288
3.444	-0.34139287
3.445	-0.167420722
3.446	0.027624545
3.447	0.218552259
3.448	0.375420929
3.449	0.479378147
3.45	0.51679249
3.451	0.477471543
3.452	0.371593061
3.453	0.212999218
3.454	0.02122504
3.455	-0.173379261
3.456	-0.345827718
3.457	-0.471928083
3.458	-0.530651444
3.459	-0.517021238
3.46	-0.432263284
3.461	-0.288050199
3.462	-0.109498916
3.463	0.08249526
3.464	0.261834368
3.465	0.399933723
3.466	0.48071076
3.467	0.489687317
3.468	0.423189343
3.469	0.294065623
3.47	0.118185891
3.471	-0.079227066
3.472	-0.268986124
3.473	-0.429395588
3.474	-0.535728348
3.475	-0.571851518
3.476	-0.537744892
3.477	-0.433881006
3.478	-0.276847183
3.479	-0.092445438
3.48	0.097284727
3.481	0.263192492
3.482	0.380637092
3.483	0.435701634
3.484	0.416754854
3.485	0.328369661
3.486	0.185615979
3.487	0.003301856
3.488	-0.190071834
3.489	-0.367976482
3.49	-0.509574269
3.491	-0.588043688
3.492	-0.591275775
3.493	-0.519180344
3.494	-0.377486443
3.495	-0.188899505
3.496	0.021314173
3.497	0.228619465
3.498	0.40319353
3.499	0.526333579
3.5	0.584659178
3.501	0.567755671
3.502	0.485766309
3.503	0.352901689
3.504	0.189274607
3.505	0.025692858
3.506	-0.113040206
3.507	-0.203891279
3.508	-0.227277479
3.509	-0.179300316
3.51	-0.061671902
3.511	0.114005427
3.512	0.322264435
3.513	0.54099016
3.514	0.742591524
3.515	0.897062009
3.516	0.987634098
3.517	1
3.518	0.930374661
3.519	0.790622979
3.52	0.594942507
3.521	0.366775407
3.522	0.134992875
3.523	-0.076444704
3.524	-0.23885005
3.525	-0.331707827
3.526	-0.351230232
3.527	-0.295961776
3.528	-0.181153568
3.529	-0.030570069
3.53	0.135383233
3.531	0.28853218
3.532	0.403621323
3.533	0.46308442
3.534	0.451394224
3.535	0.370510813
3.536	0.233775268
3.537	0.056596868
3.538	-0.132026923
3.539	-0.306841077
3.54	-0.447760359
3.541	-0.529315388
3.542	-0.540459974
3.543	-0.479668334
3.544	-0.351639175
3.545	-0.178483109
3.546	0.015864155
3.547	0.206444077
3.548	0.362666378
3.549	0.466523291
3.55	0.504611287
3.551	0.466494163
3.552	0.362824158
3.553	0.206418827
3.554	0.01572407
3.555	-0.179314437
3.556	-0.354064853
3.557	-0.483969575
3.558	-0.546840379
3.559	-0.536330859
3.56	-0.452383575
3.561	-0.30589087
3.562	-0.122438726
3.563	0.075612979
3.564	0.260677725
3.565	0.403253751
3.566	0.487401177
3.567	0.499402671
3.568	0.43605359
3.569	0.31011949
3.57	0.137204567
3.571	-0.057600287
3.572	-0.245086345
3.573	-0.403458153
3.574	-0.50834857
3.575	-0.544008767
3.576	-0.509809469
3.577	-0.405479583
3.578	-0.246675112
3.579	-0.058556186
3.58	0.136071981
3.581	0.307688178
3.582	0.431915119
3.583	0.494249686
3.584	0.482416144
3.585	0.399117159
3.586	0.257164929
3.587	0.072183777
3.588	-0.125549231
3.589	-0.30737495
3.59	-0.450931024
3.591	-0.532000108
3.592	-0.541668248
3.593	-0.481012459
3.594	-0.355481268
3.595	-0.184962967
3.596	0.008014874
3.597	0.199128786
3.598	0.357548364
3.599	0.46297895
3.6	0.501130958
3.601	0.462088217
3.602	0.356755902
3.603	0.19940353
3.604	0.009226555
3.605	-0.184118196
3.606	-0.356337847
3.607	-0.483507001
3.608	-0.544001411
3.609	-0.531898915
3.61	-0.447566043
3.611	-0.302194975
3.612	-0.12120215
3.613	0.074008707
3.614	0.257039147
3.615	0.399169224
3.616	0.484434131
3.617	0.498306441
3.618	0.436646606
3.619	0.311688363
3.62	0.138940767
3.621	-0.056381442
3.622	-0.244840294
3.623	-0.404301411
3.624	-0.509961248
3.625	-0.545748931
3.626	-0.511096832
3.627	-0.406065261
3.628	-0.24649589
3.629	-0.057389051
3.63	0.138659259
3.631	0.311820614
3.632	0.436793934
3.633	0.498320196
3.634	0.484517812
3.635	0.399748815
3.636	0.258632783
3.637	0.077165222
3.638	-0.116045137
3.639	-0.295034611
3.64	-0.439210551
3.641	-0.523871608
3.642	-0.53773924
3.643	-0.479337541
3.644	-0.353078197
3.645	-0.179844797
3.646	0.015755969
3.647	0.207860336
3.648	0.365661039
3.649	0.470118359
3.65	0.508091633
3.651	0.46960405
3.652	0.364449444
3.653	0.206014545
3.654	0.013940191
3.655	-0.180651623
3.656	-0.352488224
3.657	-0.47833833
3.658	-0.538442613
3.659	-0.528083673
3.66	-0.446851036
3.661	-0.303807236
3.662	-0.122849283
3.663	0.074138292
3.664	0.258921266
3.665	0.401523969
3.666	0.48634103
3.667	0.500118495
3.668	0.439279224
3.669	0.315164832
3.67	0.141949193
3.671	-0.055388152
3.672	-0.246189392
3.673	-0.406714533
3.674	-0.511618202
3.675	-0.545748931
3.676	-0.509991733
3.677	-0.405175623
3.678	-0.246795677
3.679	-0.058861411
3.68	0.136774554
3.681	0.310336448
3.682	0.436077153
3.683	0.498212396
3.684	0.484554452
3.685	0.39935415
3.686	0.257077996
3.687	0.073454646
3.688	-0.123014161
3.689	-0.305910469
3.69	-0.453497039
3.691	-0.539771382
3.692	-0.552927259
3.693	-0.49229512
3.694	-0.363983322
3.695	-0.19019586
3.696	0.004547773
3.697	0.195733268
3.698	0.353964148
3.699	0.460480842
3.7	0.501130958
3.701	0.464563873
3.702	0.359830888
3.703	0.200522107
3.704	0.006993413
3.705	-0.188910218
3.706	-0.361310811
3.707	-0.486488202
3.708	-0.544562899
3.709	-0.531393858
3.71	-0.44777034
3.711	-0.30380548
3.712	-0.123411183
3.713	0.072605653
3.714	0.257219812
3.715	0.400652643
3.716	0.486336074
3.717	0.499887574
3.718	0.437618324
3.719	0.311996323
3.72	0.138559279
3.721	-0.057446386
3.722	-0.246475092
3.723	-0.40636409
3.724	-0.512559018
3.725	-0.549229277
3.726	-0.515631864
3.727	-0.411296727
3.728	-0.25161693
3.729	-0.061732452
3.73	0.135049888
3.731	0.308265804
3.732	0.43260745
3.733	0.493320765
3.734	0.478973517
3.735	0.393791474
3.736	0.251817124
3.737	0.068684923
3.738	-0.126666795
3.739	-0.307349856
3.74	-0.451900481
3.741	-0.535489201
3.742	-0.547577385
3.743	-0.48782031
3.744	-0.361425498
3.745	-0.189243618
3.746	0.004856414
3.747	0.195833556
3.748	0.35320944
3.749	0.457711486
3.75	0.49591043
3.751	0.457989639
3.752	0.354168219
3.753	0.197801042
3.754	0.007553844
3.755	-0.186812237
3.756	-0.360468509
3.757	-0.489001751
3.758	-0.550627137
3.759	-0.539480204
3.76	-0.455921986
3.761	-0.310899762
3.762	-0.129458983
3.763	0.067103313
3.764	0.252039559
3.765	0.395981743
3.766	0.482385903
3.767	0.496613056
3.768	0.434876304
3.769	0.309881891
3.77	0.137350513
3.771	-0.057739729
3.772	-0.246429635
3.773	-0.406856297
3.774	-0.513967381
3.775	-0.550969459
3.776	-0.516586957
3.777	-0.410694216
3.778	-0.249635827
3.779	-0.059290823
3.78	0.137119928
3.781	0.309766856
3.782	0.433886483
3.783	0.49488263
3.784	0.481104643
3.785	0.396568986
3.786	0.25523271
3.787	0.072517635
3.788	-0.122839282
3.789	-0.303929175
3.79	-0.448956216
3.791	-0.532488036
3.792	-0.543772663
3.793	-0.483001422
3.794	-0.356135219
3.795	-0.184329867
3.796	0.00920115
3.797	0.200694546
3.798	0.360347284
3.799	0.468361796
3.8	0.509831815
3.801	0.473424753
3.802	0.369137229
3.803	0.211424502
3.804	0.020539791
3.805	-0.172623413
3.806	-0.343379851
3.807	-0.468438868
3.808	-0.527070271
3.809	-0.513807271
3.81	-0.428558868
3.811	-0.281566323
3.812	-0.097833447
3.813	0.100799733
3.814	0.286912093
3.815	0.430940341
3.816	0.517078259
3.817	0.531607024
3.818	0.471033716
3.819	0.347592646
3.82	0.176060596
3.821	-0.019034901
3.822	-0.208122229
3.823	-0.368232671
3.824	-0.473513163
3.825	-0.507465159
3.826	-0.470242245
3.827	-0.363144151
3.828	-0.203036769
3.829	-0.015024851
3.83	0.17935786
3.831	0.351545217
3.832	0.476834009
3.833	0.539623202
3.834	0.526968261
3.835	0.44242184
3.836	0.300528562
3.837	0.117636702
3.838	-0.076977959
3.839	-0.25681266
3.84	-0.401011572
3.841	-0.484758211
3.842	-0.497302117
3.843	-0.438167778
3.844	-0.312437455
3.845	-0.14079612
3.846	0.053464276
3.847	0.245835923
3.848	0.405387086
3.849	0.51162554
3.85	0.549855752
3.851	0.510009001
3.852	0.403816369
3.853	0.246482152
3.854	0.057437053
3.855	-0.134290716
3.856	-0.30572024
3.857	-0.433719453
3.858	-0.496258821
3.859	-0.486326388
3.86	-0.40304128
3.861	-0.25709836
3.862	-0.074554342
3.863	0.122187387
3.864	0.305745003
3.865	0.447011772
3.866	0.530676625
3.867	0.543131946
3.868	0.48094775
3.869	0.356514547
3.87	0.1846408
3.871	-0.010297933
3.872	-0.199335274
3.873	-0.360295044
3.874	-0.467539353
3.875	-0.503984812
3.876	-0.468536913
3.877	-0.361244225
3.878	-0.198958938
3.879	-0.008099619
3.88	0.188010911
3.881	0.359816872
3.882	0.483378576
3.883	0.544905238
3.884	0.532660753
3.885	0.44981669
3.886	0.309191195
3.887	0.125680043
3.888	-0.071239125
3.889	-0.253566348
3.89	-0.398936025
3.891	-0.482165485
3.892	-0.493351389
3.893	-0.433083153
3.894	-0.307039514
3.895	-0.136084537
3.896	0.056493868
3.897	0.246415983
3.898	0.40356738
3.899	0.508762991
3.9	0.548115587
3.901	0.510921941
3.902	0.40698347
3.903	0.249775539
3.904	0.058762775
3.905	-0.135296403
3.906	-0.307613871
3.907	-0.434834899
3.908	-0.496359075
3.909	-0.48665139
3.91	-0.404868134
3.911	-0.26046355
3.912	-0.07840556
3.913	0.118677191
3.914	0.302210661
3.915	0.442366435
3.916	0.524413045
3.917	0.536072635
3.918	0.474699578
3.919	0.352165153
3.92	0.182066247
3.921	-0.012014142
3.922	-0.201023078
3.923	-0.3622646
3.924	-0.469958249
3.925	-0.507465159
3.926	-0.47409498
3.927	-0.369626253
3.928	-0.209867628
3.929	-0.020093286
3.93	0.176689053
3.931	0.350152262
3.932	0.47501312
3.933	0.536514341
3.934	0.523096536
3.935	0.439110942
3.936	0.298628723
3.937	0.116860777
3.938	-0.077720585
3.939	-0.258732446
3.94	-0.404833649
3.941	-0.490577389
3.942	-0.504734599
3.943	-0.446515252
3.944	-0.321073412
3.945	-0.149667164
3.946	0.043650849
3.947	0.234135362
3.948	0.391740063
3.949	0.497537403
3.95	0.537674549
3.951	0.501111342
3.952	0.397161376
3.953	0.239071007
3.954	0.046589798
3.955	-0.148821308
3.956	-0.321566523
3.957	-0.447886227
3.958	-0.50750479
3.959	-0.495817794
3.96	-0.413039378
3.961	-0.26904805
3.962	-0.088209646
3.963	0.108002113
3.964	0.291874084
3.965	0.433444412
3.966	0.51695719
3.967	0.529165713
3.968	0.467275878
3.969	0.343803088
3.97	0.173110883
3.971	-0.021017999
3.972	-0.209794851
3.973	-0.37059258
3.974	-0.477247212
3.975	-0.512685669
3.976	-0.476529301
3.977	-0.369917623
3.978	-0.210055161
3.979	-0.022440966
3.98	0.17119362
3.981	0.34240229
3.982	0.466868569
3.983	0.529234229
3.984	0.516530353
3.985	0.432093854
3.986	0.290119747
3.987	0.106778296
3.988	-0.088547311
3.989	-0.269054015
3.99	-0.413520472
3.991	-0.497090254
3.992	-0.509472868
3.993	-0.450908051
3.994	-0.326961663
3.995	-0.157999503
3.996	0.033766573
3.997	0.224970593
3.998	0.385104303
3.999	0.492957714
4	0.532454039
4.001	0.492481089
4.002	0.384667084
4.003	0.225133293
4.004	0.034574023
4.005	-0.157327157
4.006	-0.327853248
4.007	-0.45480068
4.008	-0.517028402
4.009	-0.507652379
4.01	-0.425222441
4.011	-0.279716393
4.012	-0.096862971
4.013	0.100615298
4.014	0.284952746
4.015	0.42712402
4.016	0.512119677
4.017	0.526346986
4.018	0.465648557
4.019	0.341345796
4.02	0.168022637
4.021	-0.028845469
4.022	-0.218599108
4.023	-0.37820891
4.024	-0.483007821
4.025	-0.517906197
4.026	-0.48308192
4.027	-0.378245551
4.028	-0.218611542
4.029	-0.029182491
4.03	0.166846435
4.031	0.33923159
4.032	0.463422238
4.033	0.525546699
4.034	0.513976615
4.035	0.43148143
4.036	0.290200645
4.037	0.104898338
4.038	-0.094242248
4.039	-0.278017982
4.04	-0.423380998
4.041	-0.505579996
4.042	-0.515623378
4.043	-0.454661403
4.044	-0.328187988
4.045	-0.156460525
4.046	0.037430903
4.047	0.228758933
4.048	0.386768803
4.049	0.491959807
4.05	0.530713874
4.051	0.492828802
4.052	0.38829874
4.053	0.230492246
4.054	0.0387262
4.055	-0.156041082
4.056	-0.328349228
4.057	-0.454214428
4.058	-0.51306338
4.059	-0.500310151
4.06	-0.416628168
4.061	-0.272481773
4.062	-0.09252102
4.063	0.102154747
4.064	0.284832772
4.065	0.426548654
4.066	0.511806918
4.067	0.526505513
4.068	0.466296021
4.069	0.34266893
4.07	0.170378127
4.071	-0.025188357
4.072	-0.213638039
4.073	-0.372255342
4.074	-0.476435726
4.075	-0.510945505
4.076	-0.475934268
4.077	-0.371118193
4.078	-0.211722862
4.079	-0.022585079
4.08	0.173517984
4.081	0.346509702
4.082	0.471513523
4.083	0.534172222
4.084	0.522711556
4.085	0.440466457
4.086	0.300423492
4.087	0.117515574
4.088	-0.07879055
4.089	-0.260450716
4.09	-0.405139713
4.091	-0.487745098
4.092	-0.498414015
4.093	-0.437709934
4.094	-0.311006032
4.095	-0.138732297
4.096	0.056093252
4.097	0.249133796
4.098	0.409662485
4.099	0.517623627
4.1	0.558556608
4.101	0.521728378
4.102	0.417559402
4.103	0.260202404
4.104	0.069249829
4.105	-0.124774364
4.106	-0.297300492
4.107	-0.424791465
4.108	-0.486128994
4.109	-0.475654254
4.11	-0.393034209
4.111	-0.248284747
4.112	-0.06632774
4.113	0.131101194
4.114	0.31640912
4.115	0.459738133
4.116	0.545252673
4.117	0.559314134
4.118	0.498780683
4.119	0.376358076
4.12	0.206906321
4.121	0.014592368
4.122	-0.171973127
4.123	-0.331132097
4.124	-0.437639226
4.125	-0.474401896
4.126	-0.439865372
4.127	-0.333291847
4.128	-0.171085721
4.129	0.020067752
4.13	0.216181725
4.131	0.38719531
4.132	0.50935719
4.133	0.569582524
4.134	0.556548638
4.135	0.473233932
4.136	0.331921115
4.137	0.147160992
4.138	-0.051179824
4.139	-0.234512934
4.14	-0.380441368
4.141	-0.46419211
4.142	-0.476334951
4.143	-0.417269911
4.144	-0.291674447
4.145	-0.119590172
4.146	0.075578729
4.147	0.268466668
4.148	0.427652032
4.149	0.533476292
4.15	0.572477993
4.151	0.534632135
4.152	0.430126385
4.153	0.272197899
4.154	0.080015478
4.155	-0.115468864
4.156	-0.288869459
4.157	-0.416106451
4.158	-0.47623068
4.159	-0.463956684
4.16	-0.378962592
4.161	-0.231240972
4.162	-0.046011588
4.163	0.154178911
4.164	0.340840721
4.165	0.484043134
4.166	0.568620858
4.167	0.581552891
4.168	0.519529744
4.169	0.394126005
4.17	0.219223096
4.171	0.019293812
4.172	-0.17549083
4.173	-0.34147189
4.174	-0.4523938
4.175	-0.49180361
4.176	-0.459602856
4.177	-0.356261105
4.178	-0.198089386
4.179	-0.010341042
4.18	0.184473213
4.181	0.356676656
4.182	0.481370936
4.183	0.543364607
4.184	0.529878024
4.185	0.443964454
4.186	0.299217913
4.187	0.111846433
4.188	-0.087619889
4.189	-0.271033778
4.19	-0.416704806
4.191	-0.500463565
4.192	-0.513077674
4.193	-0.454917645
4.194	-0.330825546
4.195	-0.160793737
4.196	0.032272026
4.197	0.223507886
4.198	0.381601698
4.199	0.486383914
4.2	0.523753182
4.201	0.483864243
4.202	0.377901281
4.203	0.220241715
4.204	0.030273563
4.205	-0.162172703
4.206	-0.333227278
4.207	-0.459763453
4.208	-0.520864495
4.209	-0.51069801
4.21	-0.428662773
4.211	-0.284722085
4.212	-0.103792023
4.213	0.092341517
4.214	0.27624102
4.215	0.41852799
4.216	0.503580895
4.217	0.517526069
4.218	0.456514342
4.219	0.332367655
4.22	0.159809997
4.221	-0.036163319
4.222	-0.225546341
4.223	-0.385370265
4.224	-0.490366014
4.225	-0.524866872
4.226	-0.489275261
4.227	-0.384336135
4.228	-0.225952379
4.229	-0.03849392
4.23	0.156335781
4.231	0.329224345
4.232	0.454810522
4.233	0.517235569
4.234	0.503851727
4.235	0.418611532
4.236	0.276209127
4.237	0.093129395
4.238	-0.10141894
4.239	-0.281166214
4.24	-0.425508785
4.241	-0.510021557
4.242	-0.523827768
4.243	-0.465743593
4.244	-0.340347801
4.245	-0.168434644
4.246	0.025759406
4.247	0.216744031
4.248	0.373959805
4.249	0.478409525
4.25	0.51679249
4.251	0.478999167
4.252	0.374592487
4.253	0.216452835
4.254	0.023586589
4.255	-0.173425212
4.256	-0.349038137
4.257	-0.478750821
4.258	-0.541464194
4.259	-0.531836607
4.26	-0.450169185
4.261	-0.307185486
4.262	-0.127944947
4.263	0.065649407
4.264	0.246276011
4.265	0.385039299
4.266	0.466905384
4.267	0.478636029
4.268	0.416596084
4.269	0.292300643
4.27	0.11973865
4.271	-0.076727211
4.272	-0.267072025
4.273	-0.428085912
4.274	-0.533896764
4.275	-0.568371172
4.276	-0.532688577
4.277	-0.42822931
4.278	-0.271921572
4.279	-0.089411521
4.28	0.098204803
4.281	0.2626189
4.282	0.379615552
4.283	0.435330775
4.284	0.417494677
4.285	0.329875722
4.286	0.187340492
4.287	0.005571138
4.288	-0.185585181
4.289	-0.358562271
4.29	-0.492400417
4.291	-0.562086429
4.292	-0.557436658
4.293	-0.479192439
4.294	-0.333494788
4.295	-0.142028732
4.296	0.071144064
4.297	0.281755126
4.298	0.460668793
4.299	0.589724344
4.3	0.65600623
4.301	0.649661683
4.302	0.580189915
4.303	0.460027381
4.304	0.306763587
4.305	0.148782796
4.306	0.009403388
4.307	-0.088533048
4.308	-0.124575416
4.309	-0.093698668
4.31	0.003258653
4.311	0.155125422
4.312	0.336424149
4.313	0.524648645
4.314	0.691515864
4.315	0.806350627
4.316	0.852355817
4.317	0.816763459
4.318	0.699413634
4.319	0.517363334
4.32	0.290206245
4.321	0.045335594
4.322	-0.187126943
4.323	-0.384575352
4.324	-0.521013128
4.325	-0.578812193
4.326	-0.55656055
4.327	-0.454968493
4.328	-0.292467066
4.329	-0.097065708
4.33	0.106533471
4.331	0.287292117
4.332	0.419963951
4.333	0.48906173
4.334	0.481296263
4.335	0.400062514
4.336	0.258880713
4.337	0.073478761
4.338	-0.125265967
4.339	-0.309524527
4.34	-0.457138138
4.341	-0.542172105
4.342	-0.554690935
4.343	-0.494590512
4.344	-0.367157639
4.345	-0.194003972
4.346	0.001281438
4.347	0.193750078
4.348	0.352533056
4.349	0.458416163
4.35	0.497650612
4.351	0.460100054
4.352	0.356134749
4.353	0.199508305
4.354	0.009438622
4.355	-0.18404055
4.356	-0.356412241
4.357	-0.48423785
4.358	-0.54657746
4.359	-0.537455452
4.36	-0.456211721
4.361	-0.312571966
4.362	-0.131218139
4.363	0.065698614
4.364	0.25018389
4.365	0.392417282
4.366	0.476595087
4.367	0.48926681
4.368	0.427205909
4.369	0.302673826
4.37	0.130652827
4.371	-0.064046537
4.372	-0.25194188
4.373	-0.410675713
4.374	-0.515584998
4.375	-0.550969459
4.376	-0.516335759
4.377	-0.411423083
4.378	-0.251617487
4.379	-0.061843496
4.38	0.13490305
4.381	0.308519211
4.382	0.433933958
4.383	0.496250266
4.384	0.48337988
4.385	0.3986337
4.386	0.255514236
4.387	0.07008488
4.388	-0.12747812
4.389	-0.309116488
4.39	-0.453195914
4.391	-0.53582481
4.392	-0.547571507
4.393	-0.488400127
4.394	-0.362897178
4.395	-0.191114156
4.396	0.003147039
4.397	0.194172655
4.398	0.350868347
4.399	0.453997644
4.4	0.49068992
4.401	0.451504337
4.402	0.346488642
4.403	0.188810573
4.404	-0.00241339
4.405	-0.196472238
4.406	-0.368039521
4.407	-0.493483292
4.408	-0.55273383
4.409	-0.541241149
4.41	-0.459174106
4.411	-0.315972545
4.412	-0.135157668
4.413	0.062301493
4.414	0.248709845
4.415	0.393478454
4.416	0.479559994
4.417	0.492771989
4.418	0.430141653
4.419	0.304744244
4.42	0.132010528
4.421	-0.063598096
4.422	-0.25319215
4.423	-0.414238609
4.424	-0.520864182
4.425	-0.55618997
4.426	-0.519921888
4.427	-0.41339429
4.428	-0.253487311
4.429	-0.064929175
4.43	0.131045625
4.431	0.305806581
4.432	0.433748268
4.433	0.497866822
4.434	0.48459598
4.435	0.397982636
4.436	0.253768594
4.437	0.069326172
4.438	-0.126294594
4.439	-0.307451396
4.44	-0.453645236
4.441	-0.539564528
4.442	-0.553065318
4.443	-0.492689821
4.444	-0.364165883
4.445	-0.190004048
4.446	0.004537412
4.447	0.194425019
4.448	0.350491506
4.449	0.454810401
4.45	0.494170266
4.451	0.457645404
4.452	0.353853982
4.453	0.195454785
4.454	0.001982684
4.455	-0.194961448
4.456	-0.369057566
4.457	-0.49585313
4.458	-0.554882312
4.459	-0.541786221
4.46	-0.457523187
4.461	-0.312609268
4.462	-0.131458145
4.463	0.064640356
4.464	0.248373158
4.465	0.39005579
4.466	0.473632268
4.467	0.485502624
4.468	0.422627489
4.469	0.297571933
4.47	0.125330562
4.471	-0.069711181
4.472	-0.258583066
4.473	-0.418949836
4.474	-0.525440011
4.475	-0.56141048
4.476	-0.526003464
4.477	-0.419506455
4.478	-0.258343849
4.479	-0.068134091
4.48	0.128252893
4.481	0.301347752
4.482	0.426572166
4.483	0.489126473
4.484	0.476873397
4.485	0.393219917
4.486	0.25181222
4.487	0.068409362
4.488	-0.127676491
4.489	-0.309175127
4.49	-0.454416674
4.491	-0.538588671
4.492	-0.551254777
4.493	-0.492156453
4.494	-0.366425347
4.495	-0.194589928
4.496	-0.000151114
4.497	0.191999497
4.498	0.351090695
4.499	0.457115392
4.5	0.49591043
4.501	0.457354887
4.502	0.351988558
4.503	0.194006998
4.504	0.002941506
4.505	-0.191017937
4.506	-0.363175088
4.507	-0.489687595
4.508	-0.549415176
4.509	-0.536881078
4.51	-0.452560309
4.511	-0.307395296
4.512	-0.126482964
4.513	0.06878323
4.514	0.251813281
4.515	0.39383121
4.516	0.479052189
4.517	0.493249118
4.518	0.432311489
4.519	0.308051316
4.52	0.135475073
4.521	-0.060392446
4.522	-0.249838351
4.523	-0.410119807
4.524	-0.515938276
4.525	-0.550969459
4.526	-0.514631505
4.527	-0.407460999
4.528	-0.246216938
4.529	-0.056978604
4.53	0.137045576
4.531	0.306718199
4.532	0.428610725
4.533	0.489285174
4.534	0.477243943
4.535	0.395206619
4.536	0.255214189
4.537	0.07174937
4.538	-0.125906706
4.539	-0.309365947
4.54	-0.455628634
4.541	-0.539401827
4.542	-0.550787908
4.543	-0.490502525
4.544	-0.364456643
4.545	-0.193443267
4.546	-0.00079181
4.547	0.189042347
4.548	0.345955309
4.549	0.450595084
4.55	0.488949755
4.551	0.45035818
4.552	0.344423668
4.553	0.184893773
4.554	-0.008073126
4.555	-0.203147648
4.556	-0.375163418
4.557	-0.501080997
4.558	-0.561146796
4.559	-0.55033935
4.56	-0.467951618
4.561	-0.323156646
4.562	-0.14048076
4.563	0.057286301
4.564	0.241369008
4.565	0.382039352
4.566	0.464686751
4.567	0.477269471
4.568	0.416920216
4.569	0.294833113
4.57	0.124348824
4.571	-0.070623355
4.572	-0.260194214
4.573	-0.420883656
4.574	-0.527133257
4.575	-0.563150644
4.576	-0.528975031
4.577	-0.424734687
4.578	-0.265700442
4.579	-0.076375803
4.58	0.120592471
4.581	0.294970738
4.582	0.421162296
4.583	0.483952654
4.584	0.471477543
4.585	0.38767917
4.586	0.246536966
4.587	0.063701599
4.588	-0.131744995
4.589	-0.312577479
4.59	-0.456966394
4.591	-0.539805084
4.592	-0.550579454
4.593	-0.48937221
4.594	-0.361815573
4.595	-0.18882518
4.596	0.00614735
4.597	0.198786012
4.598	0.358945494
4.599	0.466884481
4.6	0.508091633
4.601	0.471605951
4.602	0.367375971
4.603	0.209683607
4.604	0.018751813
4.605	-0.174408529
4.606	-0.345076662
4.607	-0.470329943
4.608	-0.529988016
4.609	-0.518635759
4.61	-0.435562774
4.611	-0.29015011
4.612	-0.10708378
4.613	0.091158726
4.614	0.276330631
4.615	0.418818142
4.616	0.503577713
4.617	0.517655485
4.618	0.457367755
4.619	0.333944423
4.62	0.161595685
4.621	-0.034562076
4.622	-0.223887979
4.623	-0.383254721
4.624	-0.48806817
4.625	-0.523126707
4.626	-0.488091125
4.627	-0.381970818
4.628	-0.219648594
4.629	-0.02685929
4.63	0.171627718
4.631	0.344226274
4.632	0.466208149
4.633	0.52490546
4.634	0.510472288
4.635	0.426898332
4.636	0.286520158
4.637	0.103472237
4.638	-0.092957086
4.639	-0.27429981
4.64	-0.418080859
4.641	-0.499914198
4.642	-0.510793464
4.643	-0.451355026
4.644	-0.32617927
4.645	-0.154690037
4.646	0.04025987
4.647	0.233512261
4.648	0.393534658
4.649	0.500136685
4.65	0.539414731
4.651	0.50126733
4.652	0.395977726
4.653	0.237251805
4.654	0.044677158
4.655	-0.150643207
4.656	-0.323204747
4.657	-0.449085928
4.658	-0.507860137
4.659	-0.495082162
4.66	-0.411459167
4.661	-0.267285609
4.662	-0.086801617
4.663	0.109187547
4.664	0.293751577
4.665	0.437114483
4.666	0.522805393
4.667	0.536477092
4.668	0.474598925
4.669	0.349819521
4.67	0.177323126
4.671	-0.018294422
4.672	-0.207931304
4.673	-0.369211641
4.674	-0.476419275
4.675	-0.512685669
4.676	-0.47747909
4.677	-0.371536474
4.678	-0.211760476
4.679	-0.023666695
4.68	0.170744738
4.681	0.342741047
4.682	0.467893553
4.683	0.530832074
4.684	0.518405359
4.685	0.433565725
4.686	0.290306411
4.687	0.105187922
4.688	-0.091556811
4.689	-0.272541856
4.69	-0.416818762
4.691	-0.500339679
4.692	-0.5130867
4.693	-0.454395614
4.694	-0.328515285
4.695	-0.155656182
4.696	0.040284364
4.697	0.233610967
4.698	0.392998855
4.699	0.498853408
4.7	0.537674549
4.701	0.499409001
4.702	0.39418247
4.703	0.235521901
4.704	0.042990004
4.705	-0.152314984
4.706	-0.32509137
4.707	-0.451800297
4.708	-0.51231474
4.709	-0.501970356
4.71	-0.420645587
4.711	-0.277682912
4.712	-0.097002863
4.713	0.099948541
4.714	0.285058372
4.715	0.427764093
4.716	0.511802605
4.717	0.523812864
4.718	0.461254784
4.719	0.337068118
4.72	0.16599276
4.721	-0.028126655
4.722	-0.216763386
4.723	-0.377669681
4.724	-0.484949257
4.725	-0.521386543
4.726	-0.486027002
4.727	-0.3793751
4.728	-0.218442911
4.729	-0.029222707
4.73	0.165660526
4.731	0.337242662
4.732	0.461510173
4.733	0.523874442
4.734	0.511787859
4.735	0.428204512
4.736	0.286635819
4.737	0.103142426
4.738	-0.092316282
4.739	-0.272476191
4.74	-0.41660057
4.741	-0.500959075
4.742	-0.515502639
4.743	-0.458992189
4.744	-0.334912542
4.745	-0.163131559
4.746	0.031938787
4.747	0.223677108
4.748	0.380433351
4.749	0.483336822
4.75	0.520272836
4.751	0.482143052
4.752	0.378672075
4.753	0.221979636
4.754	0.030293567
4.755	-0.16559835
4.756	-0.339461416
4.757	-0.466373285
4.758	-0.52537779
4.759	-0.511972818
4.76	-0.42708211
4.761	-0.281371068
4.762	-0.099652524
4.763	0.096475089
4.764	0.279597184
4.765	0.420330637
4.766	0.503280674
4.767	0.515123555
4.768	0.452517652
4.769	0.327417003
4.77	0.154322785
4.771	-0.042140242
4.772	-0.232282893
4.773	-0.393270139
4.774	-0.499683102
4.775	-0.53530791
4.776	-0.499763061
4.777	-0.393314762
4.778	-0.232285902
4.779	-0.042385726
4.78	0.153274991
4.781	0.325048016
4.782	0.448713278
4.783	0.51018278
4.784	0.497637187
4.785	0.414175762
4.786	0.27273518
4.787	0.088654098
4.788	-0.108268268
4.789	-0.290025319
4.79	-0.434753757
4.791	-0.518083905
4.792	-0.530303453
4.793	-0.471284827
4.794	-0.345629316
4.795	-0.173532976
4.796	0.021214052
4.797	0.213065665
4.798	0.371065553
4.799	0.476085178
4.8	0.515052325
4.801	0.47794589
4.802	0.374215246
4.803	0.216516691
4.804	0.0238687
4.805	-0.172501433
4.806	-0.346400649
4.807	-0.473238906
4.808	-0.53229179
4.809	-0.519036738
4.81	-0.434252925
4.811	-0.288377983
4.812	-0.10596711
4.813	0.091476834
4.814	0.276311711
4.815	0.418509
4.816	0.501909734
4.817	0.513060771
4.818	0.44935323
4.819	0.323787416
4.82	0.151294563
4.821	-0.04418026
4.822	-0.233971201
4.823	-0.395412777
4.824	-0.502171454
4.825	-0.537048075
4.826	-0.499928266
4.827	-0.392639352
4.828	-0.232688845
4.829	-0.045077886
4.83	0.149338744
4.831	0.322550518
4.832	0.449511444
4.833	0.513440934
4.834	0.500548324
4.835	0.414600704
4.836	0.271098695
4.837	0.087120062
4.838	-0.108457943
4.839	-0.290144684
4.84	-0.437459518
4.841	-0.524756428
4.842	-0.539568493
4.843	-0.480175722
4.844	-0.352043354
4.845	-0.177565091
4.846	0.018077462
4.847	0.20967959
4.848	0.367379884
4.849	0.472506266
4.85	0.511571979
4.851	0.474185548
4.852	0.370254432
4.853	0.213316724
4.854	0.022594833
4.855	-0.171589733
4.856	-0.344340039
4.857	-0.471579049
4.858	-0.531892794
4.859	-0.519583305
4.86	-0.434824674
4.861	-0.288430292
4.862	-0.105851983
4.863	0.090878657
4.864	0.274425349
4.865	0.415663232
4.866	0.499278646
4.867	0.511930735
4.868	0.450325991
4.869	0.326624976
4.87	0.155447248
4.871	-0.038906512
4.872	-0.227336084
4.873	-0.387464438
4.874	-0.493913468
4.875	-0.5300874
4.876	-0.495209022
4.877	-0.389395266
4.878	-0.228916278
4.879	-0.039350635
4.88	0.156440485
4.881	0.328870024
4.882	0.45336004
4.883	0.515342495
4.884	0.502845351
4.885	0.419278577
4.886	0.277934023
4.887	0.093959461
4.888	-0.10350251
4.889	-0.286744193
4.89	-0.433197214
4.891	-0.517083616
4.892	-0.527895095
4.893	-0.46632821
4.894	-0.338847341
4.895	-0.166965788
4.896	0.026039597
4.897	0.216588338
4.898	0.375237343
4.899	0.482573558
4.9	0.523753182
4.901	0.487125337
4.902	0.382229528
4.903	0.223280911
4.904	0.030849368
4.905	-0.163531183
4.906	-0.334869206
4.907	-0.460210063
4.908	-0.51962045
4.909	-0.508214146
4.91	-0.425643071
4.911	-0.281308638
4.912	-0.099520281
4.913	0.097992282
4.914	0.283346571
4.915	0.426588425
4.916	0.512055682
4.917	0.526385766
4.918	0.466253955
4.919	0.343688871
4.92	0.173066608
4.921	-0.021289848
4.922	-0.209906286
4.923	-0.370124981
4.924	-0.476519771
4.925	-0.512685669
4.926	-0.478000442
4.927	-0.372279792
4.928	-0.211365358
4.929	-0.020717096
4.93	0.17654289
4.931	0.350261071
4.932	0.47550077
4.933	0.537850101
4.934	0.525771186
4.935	0.443193677
4.936	0.303762857
4.937	0.122592318
4.938	-0.071524343
4.939	-0.251635572
4.94	-0.396121385
4.941	-0.479780291
4.942	-0.491926453
4.943	-0.432237408
4.944	-0.305814215
4.945	-0.133440783
4.946	0.061172721
4.947	0.253039379
4.948	0.411233792
4.949	0.515947614
4.95	0.553336098
4.951	0.513535935
4.952	0.407579459
4.953	0.249772791
4.954	0.059381278
4.955	-0.133809228
4.956	-0.305838857
4.957	-0.433318057
4.958	-0.494825347
4.959	-0.484172916
4.96	-0.400821848
4.961	-0.255292479
4.962	-0.073492089
4.963	0.122017655
4.964	0.303791898
4.965	0.443337023
4.966	0.526473359
4.967	0.540335705
4.968	0.481001033
4.969	0.359265174
4.97	0.188496892
4.971	-0.007067643
4.972	-0.197367353
4.973	-0.358965092
4.974	-0.465981471
4.975	-0.502244648
4.976	-0.467692072
4.977	-0.362610922
4.978	-0.20299759
4.979	-0.013915467
4.98	0.182107774
4.981	0.355456887
4.982	0.481538941
4.983	0.545782389
4.984	0.536050706
4.985	0.455328883
4.986	0.316072015
4.987	0.132610262
4.988	-0.066196065
4.989	-0.252311417
4.99	-0.40224847
4.991	-0.489289138
4.992	-0.502511237
4.993	-0.442751171
4.994	-0.317047611
4.995	-0.14735562
4.996	0.043119408
4.997	0.231072706
4.998	0.387251289
4.999	0.49216833
5	0.530713874
5.001	0.491304691
5.002	0.383867492
5.003	0.222870334
5.004	0.028759519
5.005	-0.167485317
5.006	-0.341184034
5.007	-0.468889391
5.008	-0.529832132
5.009	-0.518691042
5.01	-0.435690139
5.011	-0.291622312
5.012	-0.111756419
5.013	0.082332893
5.014	0.263789525
5.015	0.403840455
5.016	0.487118502
5.017	0.499724282
5.018	0.437811544
5.019	0.313245707
5.02	0.140799771
5.021	-0.054580096
5.022	-0.243135083
5.023	-0.402147817
5.024	-0.506482241
5.025	-0.540528421
5.026	-0.504687872
5.027	-0.399756937
5.028	-0.241721538
5.029	-0.054908367
5.03	0.139213019
5.031	0.311718118
5.032	0.437610655
5.033	0.501104056
5.034	0.489156888
5.035	0.404944737
5.036	0.26239643
5.037	0.077673338
5.038	-0.119640755
5.039	-0.302357815
5.04	-0.448957103
5.041	-0.534461835
5.042	-0.547963825
5.043	-0.488684871
5.044	-0.361804391
5.045	-0.188800139
5.046	0.005576561
5.047	0.196002674
5.048	0.352845884
5.049	0.458260523
5.05	0.499390776
5.051	0.465148299
5.052	0.363383959
5.053	0.206032352
5.054	0.012849167
5.055	-0.183507199
5.056	-0.356140836
5.057	-0.481389265
5.058	-0.54041629
5.059	-0.529740122
5.06	-0.449265028
5.061	-0.30721484
5.062	-0.126408049
5.063	0.071473811
5.064	0.257254887
5.065	0.399711844
5.066	0.482794481
5.067	0.494082081
5.068	0.431533478
5.069	0.307545424
5.07	0.136204825
5.071	-0.058716464
5.072	-0.2480416
5.073	-0.408603713
5.074	-0.514482055
5.075	-0.549229277
5.076	-0.512572825
5.077	-0.40547021
5.078	-0.244515501
5.079	-0.054924215
5.08	0.140780209
5.081	0.313301372
5.082	0.438004921
5.083	0.499848985
5.084	0.48678338
5.085	0.402506138
5.086	0.260587506
5.087	0.076098848
5.088	-0.122467623
5.089	-0.307928299
5.09	-0.457519814
5.091	-0.544674073
5.092	-0.558484857
5.093	-0.500398613
5.094	-0.377865475
5.095	-0.212592831
5.096	-0.026381192
5.097	0.159691283
5.098	0.316846461
5.099	0.424244793
5.1	0.46458735
5.101	0.423840059
5.102	0.312481782
5.103	0.14703462
5.104	-0.050823613
5.105	-0.248974764
5.106	-0.423219532
5.107	-0.551080355
5.108	-0.610834577
5.109	-0.596108001
5.11	-0.506049648
5.111	-0.350576073
5.112	-0.15582996
5.113	0.05547663
5.114	0.255422939
5.115	0.414133974
5.116	0.516095307
5.117	0.54810138
5.118	0.507291398
5.119	0.406318615
5.12	0.260086413
5.121	0.092741092
5.122	-0.066916583
5.123	-0.196260776
5.124	-0.269651152
5.125	-0.270801831
5.126	-0.200244597
5.127	-0.060842302
5.128	0.128537569
5.129	0.340918071
5.13	0.553317212
5.131	0.737023109
5.132	0.867903966
5.133	0.930699107
5.134	0.912180312
5.135	0.814354406
5.136	0.649945088
5.137	0.434660373
5.138	0.198551316
5.139	-0.029130451
5.14	-0.223744094
5.141	-0.357327077
5.142	-0.416785548
5.143	-0.400364404
5.144	-0.312737154
5.145	-0.174142671
5.146	-0.007206674
5.147	0.164267089
5.148	0.310036749
5.149	0.409685127
5.15	0.447185637
5.151	0.410098469
5.152	0.307629644
5.153	0.152941554
5.154	-0.034561259
5.155	-0.224510906
5.156	-0.393065911
5.157	-0.516668742
5.158	-0.574292413
5.159	-0.56057456
5.16	-0.47458863
5.161	-0.326855793
5.162	-0.143363141
5.163	0.054154596
5.164	0.237818841
5.165	0.37862547
5.166	0.462363552
5.167	0.475533846
5.168	0.414457167
5.169	0.29058952
5.17	0.11786748
5.171	-0.078721454
5.172	-0.268881002
5.173	-0.429387779
5.174	-0.534993899
5.175	-0.570111337
5.176	-0.534729884
5.177	-0.429154093
5.178	-0.268938545
5.179	-0.078981502
5.18	0.117675687
5.181	0.290938433
5.182	0.415698343
5.183	0.47727168
5.184	0.464243202
5.185	0.380499902
5.186	0.239566013
5.187	0.056685812
5.188	-0.139381857
5.189	-0.321432394
5.19	-0.467413902
5.191	-0.552205609
5.192	-0.565300482
5.193	-0.506648611
5.194	-0.381657832
5.195	-0.210802583
5.196	-0.017229446
5.197	0.17457756
5.198	0.334049285
5.199	0.440875052
5.2	0.480248899
5.201	0.441563504
5.202	0.335336197
5.203	0.176458879
5.204	-0.014611537
5.205	-0.20746847
5.206	-0.378339248
5.207	-0.505006718
5.208	-0.567279898
5.209	-0.558732282
5.21	-0.477376524
5.211	-0.332001648
5.212	-0.147734489
5.213	0.051512204
5.214	0.236161261
5.215	0.376437983
5.216	0.458221326
5.217	0.470152391
5.218	0.409698117
5.219	0.287816982
5.22	0.117350948
5.221	-0.078164807
5.222	-0.268691694
5.223	-0.429997612
5.224	-0.535797838
5.225	-0.570111337
5.226	-0.533501733
5.227	-0.42722436
5.228	-0.267370507
5.229	-0.078429471
5.23	0.117582484
5.231	0.291263522
5.232	0.417390737
5.233	0.480422138
5.234	0.467989771
5.235	0.383695644
5.236	0.24146787
5.237	0.057153366
5.238	-0.140163939
5.239	-0.323282532
5.24	-0.470054468
5.241	-0.554811482
5.242	-0.566295607
5.243	-0.504228777
5.244	-0.374824331
5.245	-0.200178359
5.246	-0.00501142
5.247	0.185608188
5.248	0.341859896
5.249	0.44505258
5.25	0.481989063
5.251	0.442842347
5.252	0.337710331
5.253	0.180186441
5.254	-0.010599512
5.255	-0.204675115
5.256	-0.37740471
5.257	-0.504994736
5.258	-0.566259262
5.259	-0.55530075
5.26	-0.471942673
5.261	-0.32662668
5.262	-0.144489143
5.263	0.052298574
5.264	0.236199346
5.265	0.378027967
5.266	0.462305053
5.267	0.475613266
5.268	0.414441863
5.269	0.290490276
5.27	0.118186454
5.271	-0.07804864
5.272	-0.268650323
5.273	-0.430449665
5.274	-0.537616345
5.275	-0.573591683
5.276	-0.537926113
5.277	-0.431409053
5.278	-0.270636834
5.279	-0.08105648
5.28	0.114667565
5.281	0.287194663
5.282	0.41187044
5.283	0.473730017
5.284	0.460698078
5.285	0.376360997
5.286	0.234457494
5.287	0.050651587
5.288	-0.146048202
5.289	-0.328411258
5.29	-0.474299226
5.291	-0.558344537
5.292	-0.569960565
5.293	-0.509563957
5.294	-0.383476443
5.295	-0.212833178
5.296	-0.020599639
5.297	0.169638197
5.298	0.328190005
5.299	0.435006416
5.3	0.475028371
5.301	0.437398219
5.302	0.332528287
5.303	0.174975025
5.304	-0.015632713
5.305	-0.209662043
5.306	-0.382961891
5.307	-0.511533182
5.308	-0.573301357
5.309	-0.561686007
5.31	-0.476826079
5.311	-0.330200515
5.312	-0.147658324
5.313	0.048895452
5.314	0.232739937
5.315	0.374964981
5.316	0.459372596
5.317	0.471622158
5.318	0.408231062
5.319	0.28220577
5.32	0.109633345
5.321	-0.084420746
5.322	-0.271267709
5.323	-0.429437428
5.324	-0.534466808
5.325	-0.570111337
5.326	-0.535370497
5.327	-0.430304719
5.328	-0.270913614
5.329	-0.082297424
5.33	0.112979153
5.331	0.285485262
5.332	0.410276491
5.333	0.472071359
5.334	0.458754955
5.335	0.374216377
5.336	0.232636014
5.337	0.049889154
5.338	-0.145355761
5.339	-0.326581518
5.34	-0.472285204
5.341	-0.557291365
5.342	-0.570507202
5.343	-0.511405018
5.344	-0.38552921
5.345	-0.213892924
5.346	-0.020116008
5.347	0.171252871
5.348	0.329997852
5.349	0.436150521
5.35	0.475028371
5.351	0.435961023
5.352	0.329163619
5.353	0.169206229
5.354	-0.023581623
5.355	-0.218565806
5.356	-0.391154681
5.357	-0.518062655
5.358	-0.578635928
5.359	-0.567095495
5.36	-0.483121221
5.361	-0.337134078
5.362	-0.154585997
5.363	0.041688505
5.364	0.22375658
5.365	0.36281828
5.366	0.444384144
5.367	0.456132457
5.368	0.395028528
5.369	0.272350183
5.37	0.101728955
5.371	-0.093043445
5.372	-0.282698237
5.373	-0.444182472
5.374	-0.551874939
5.375	-0.589253232
5.376	-0.555355128
5.377	-0.450181532
5.378	-0.289768956
5.379	-0.099843626
5.38	0.095927888
5.381	0.26751267
5.382	0.390585802
5.383	0.451250721
5.384	0.43824012
5.385	0.354800154
5.386	0.213558271
5.387	0.029470648
5.388	-0.168140544
5.389	-0.351047081
5.39	-0.496523932
5.391	-0.579660442
5.392	-0.59074065
5.393	-0.530478153
5.394	-0.404547897
5.395	-0.2331141
5.396	-0.03894309
5.397	0.153552753
5.398	0.313560848
5.399	0.420424334
5.4	0.459366839
5.401	0.420269372
5.402	0.314084339
5.403	0.15571212
5.404	-0.034925318
5.405	-0.227990347
5.406	-0.39950419
5.407	-0.526281635
5.408	-0.587209855
5.409	-0.576001536
5.41	-0.492120594
5.411	-0.34588994
5.412	-0.162576161
5.413	0.035456744
5.414	0.220693594
5.415	0.363945777
5.416	0.449523599
5.417	0.463594868
5.418	0.402198109
5.419	0.277140135
5.42	0.103682272
5.421	-0.092622828
5.422	-0.281457827
5.423	-0.440093146
5.424	-0.544233254
5.425	-0.578812193
5.426	-0.543829267
5.427	-0.439080057
5.428	-0.279479298
5.429	-0.089499935
5.43	0.108074612
5.431	0.283109528
5.432	0.410288542
5.433	0.474627514
5.434	0.464074971
5.435	0.381849679
5.436	0.241313151
5.437	0.058233474
5.438	-0.13748853
5.439	-0.317660539
5.44	-0.460257346
5.441	-0.54094858
5.442	-0.550152338
5.443	-0.488243617
5.444	-0.360326364
5.445	-0.186624007
5.446	0.009343744
5.447	0.202369637
5.448	0.361384353
5.449	0.466580782
5.45	0.504611287
5.451	0.466201037
5.452	0.362277625
5.453	0.206801668
5.454	0.018565253
5.455	-0.172932552
5.456	-0.34338792
5.457	-0.469051413
5.458	-0.528536265
5.459	-0.516069796
5.46	-0.431873679
5.461	-0.28656059
5.462	-0.104973404
5.463	0.091609003
5.464	0.27636642
5.465	0.419803476
5.466	0.505476213
5.467	0.519035451
5.468	0.456986254
5.469	0.332235074
5.47	0.160365268
5.471	-0.034011015
5.472	-0.222162944
5.473	-0.382202209
5.474	-0.488775925
5.475	-0.524866872
5.476	-0.489434693
5.477	-0.38284896
5.478	-0.221898129
5.479	-0.032382933
5.48	0.163260591
5.481	0.336131963
5.482	0.461878615
5.483	0.525385772
5.484	0.51370634
5.485	0.429642334
5.486	0.286815579
5.487	0.101475701
5.488	-0.096083645
5.489	-0.277811058
5.49	-0.421873442
5.491	-0.503769472
5.492	-0.513921541
5.493	-0.452964679
5.494	-0.326426573
5.495	-0.154805768
5.496	0.038892991
5.497	0.230381384
5.498	0.389133564
5.499	0.495196241
5.5	0.534194203
5.501	0.495682413
5.502	0.390255862
5.503	0.232310908
5.504	0.041645493
5.505	-0.151462752
5.506	-0.322963948
5.507	-0.449985425
5.508	-0.51185947
5.509	-0.50256405
5.51	-0.420893012
5.511	-0.276184259
5.512	-0.093370698
5.513	0.10492097
5.514	0.290269858
5.515	0.432917722
5.516	0.517681396
5.517	0.531415091
5.518	0.470499304
5.519	0.346399327
5.52	0.17345173
5.521	-0.023244026
5.522	-0.213256207
5.523	-0.37359458
5.524	-0.479590688
5.525	-0.516166015
5.526	-0.483375811
5.527	-0.380556576
5.528	-0.222311437
5.529	-0.03305596
5.53	0.164114114
5.531	0.338311764
5.532	0.46384711
5.533	0.525910341
5.534	0.512901375
5.535	0.428675485
5.536	0.286699083
5.537	0.102244109
5.538	-0.09524574
5.539	-0.27796856
5.54	-0.423791036
5.541	-0.507718652
5.542	-0.519701679
5.543	-0.459909859
5.544	-0.333584938
5.545	-0.16134236
5.546	0.033265993
5.547	0.225188941
5.548	0.383411735
5.549	0.488110514
5.55	0.525493346
5.551	0.485761039
5.552	0.379828249
5.553	0.221892964
5.554	0.031312791
5.555	-0.161870675
5.556	-0.3333372
5.557	-0.459588284
5.558	-0.519615146
5.559	-0.507892344
5.56	-0.424423719
5.561	-0.279570317
5.562	-0.098145969
5.563	0.098507772
5.564	0.283323529
5.565	0.426725945
5.566	0.512414959
5.567	0.525978997
5.568	0.463676653
5.569	0.338068286
5.57	0.164672314
5.571	-0.031317096
5.572	-0.220371792
5.573	-0.380220758
5.574	-0.485893742
5.575	-0.521386543
5.576	-0.4864589
5.577	-0.381416181
5.578	-0.222273231
5.579	-0.03393088
5.58	0.161448117
5.581	0.334440995
5.582	0.459930866
5.583	0.522394989
5.584	0.509195341
5.585	0.424039539
5.586	0.281462105
5.587	0.09803804
5.588	-0.096586419
5.589	-0.275879326
5.59	-0.419636724
5.591	-0.504158747
5.592	-0.519152538
5.593	-0.463235226
5.594	-0.339845387
5.595	-0.16861618
5.596	0.026612025
5.597	0.219728014
5.598	0.378845506
5.599	0.484030353
5.6	0.522013
5.601	0.483443597
5.602	0.378971739
5.603	0.22203864
5.604	0.031405589
5.605	-0.162827886
5.606	-0.335684449
5.607	-0.462941578
5.608	-0.523204684
5.609	-0.510882796
5.61	-0.426127504
5.611	-0.279725853
5.612	-0.097308066
5.613	0.098814142
5.614	0.281245078
5.615	0.421303415
5.616	0.504375479
5.617	0.517308955
5.618	0.45618694
5.619	0.33226815
5.62	0.15993232
5.621	-0.035610976
5.622	-0.224057218
5.623	-0.382896017
5.624	-0.488098915
5.625	-0.524866872
5.626	-0.492917265
5.627	-0.390864668
5.628	-0.232694236
5.629	-0.042805972
5.63	0.155139814
5.631	0.329713108
5.632	0.455172773
5.633	0.517152932
5.634	0.504490461
5.635	0.420971771
5.636	0.279676518
5.637	0.095708239
5.638	-0.101244901
5.639	-0.283071044
5.64	-0.427829254
5.641	-0.51116834
5.642	-0.523273496
5.643	-0.463587078
5.644	-0.336242233
5.645	-0.161686383
5.646	0.035103966
5.647	0.227231587
5.648	0.383363269
5.649	0.485446872
5.65	0.522013
5.651	0.483769364
5.652	0.379690885
5.653	0.2216422
5.654	0.028753302
5.655	-0.166744293
5.656	-0.338187756
5.657	-0.462121884
5.658	-0.519911837
5.659	-0.508160619
5.66	-0.42652836
5.661	-0.283025621
5.662	-0.100804788
5.663	0.097826694
5.664	0.283261482
5.665	0.424594176
5.666	0.506945928
5.667	0.518750881
5.668	0.45771126
5.669	0.335125743
5.67	0.163866222
5.671	-0.032407066
5.672	-0.223398398
5.673	-0.384875729
5.674	-0.490602813
5.675	-0.524866872
5.676	-0.488624163
5.677	-0.383024651
5.678	-0.224115092
5.679	-0.036396308
5.68	0.15830722
5.681	0.330718354
5.682	0.455898301
5.683	0.518647654
5.684	0.506482207
5.685	0.422786625
5.686	0.281382076
5.687	0.09816906
5.688	-0.097269441
5.689	-0.277738281
5.69	-0.422039638
5.691	-0.505659382
5.692	-0.51818908
5.693	-0.458910804
5.694	-0.332288914
5.695	-0.158859189
5.696	0.037218832
5.697	0.23024223
5.698	0.389048231
5.699	0.49422374
5.7	0.532454039
5.701	0.493825005
5.702	0.388602126
5.703	0.230465639
5.704	0.038977903
5.705	-0.154909664
5.706	-0.326165236
5.707	-0.451530283
5.708	-0.510923906
5.709	-0.4995348
5.71	-0.41703332
5.711	-0.272634423
5.712	-0.090424703
5.713	0.107830446
5.714	0.293837954
5.715	0.437109493
5.716	0.521721544
5.717	0.534542837
5.718	0.472851196
5.719	0.349204159
5.72	0.178014292
5.721	-0.016797982
5.722	-0.206195835
5.723	-0.367534115
5.724	-0.474813031
5.725	-0.510945505
5.726	-0.475189559
5.727	-0.367932225
5.728	-0.206018283
5.729	-0.015553947
5.73	0.180637659
5.731	0.353396347
5.732	0.478756646
5.733	0.5424745
5.734	0.532052921
5.735	0.450024396
5.736	0.309243122
5.737	0.12523859
5.738	-0.071745893
5.739	-0.253483642
5.74	-0.398245746
5.741	-0.481614483
5.742	-0.493684737
5.743	-0.433982633
5.744	-0.306671125
5.745	-0.132020028
5.746	0.065584494
5.747	0.259713971
5.748	0.418519834
5.749	0.522792924
5.75	0.56029679
5.751	0.522243365
5.752	0.419292993
5.753	0.264171983
5.754	0.074740092
5.755	-0.119198644
5.756	-0.292370638
5.757	-0.419901486
5.758	-0.479894543
5.759	-0.467029235
5.76	-0.382091643
5.761	-0.236147419
5.762	-0.054350959
5.763	0.142216575
5.764	0.326788389
5.765	0.469750247
5.766	0.554760338
5.767	0.56740168
5.768	0.50420144
5.769	0.378156479
5.77	0.204535421
5.771	0.007737918
5.772	-0.183260366
5.773	-0.345852221
5.774	-0.453419897
5.775	-0.488323281
5.776	-0.450385743
5.777	-0.341580665
5.778	-0.180262905
5.779	0.007594444
5.78	0.200881732
5.781	0.372013134
5.782	0.497033685
5.783	0.560285
5.784	0.548252899
5.785	0.464290068
5.786	0.323064462
5.787	0.140992542
5.788	-0.052835357
5.789	-0.232476444
5.79	-0.377313952
5.791	-0.461936663
5.792	-0.47455265
5.793	-0.413760437
5.794	-0.284645447
5.795	-0.109018768
5.796	0.088402901
5.797	0.282265557
5.798	0.441946919
5.799	0.548041523
5.8	0.58639936
5.801	0.54620761
5.802	0.437553198
5.803	0.274532088
5.804	0.077428148
5.805	-0.122223099
5.806	-0.298934926
5.807	-0.428787825
5.808	-0.491154737
5.809	-0.481170168
5.81	-0.399070919
5.811	-0.255136786
5.812	-0.074203833
5.813	0.122027703
5.814	0.305772236
5.815	0.44704636
5.816	0.529925794
5.817	0.54080153
5.818	0.476695758
5.819	0.350354472
5.82	0.176751187
5.821	-0.019587079
5.822	-0.209612951
5.823	-0.371167928
5.824	-0.478859491
5.825	-0.516166015
5.826	-0.482453619
5.827	-0.377846677
5.828	-0.218848341
5.829	-0.031097501
5.83	0.162739241
5.831	0.333246198
5.832	0.456186105
5.833	0.517240995
5.834	0.504480914
5.835	0.421398486
5.836	0.281243982
5.837	0.09900162
5.838	-0.096423466
5.839	-0.27788041
5.84	-0.423413256
5.841	-0.507577272
5.842	-0.519724373
5.843	-0.459801867
5.844	-0.33342415
5.845	-0.161773849
5.846	0.031506703
5.847	0.221959568
5.848	0.379500969
5.849	0.484834553
5.85	0.523753182
5.851	0.48529417
5.852	0.379256692
5.853	0.219704138
5.854	0.027066831
5.855	-0.16718758
5.856	-0.338179147
5.857	-0.463250216
5.858	-0.522886447
5.859	-0.512240224
5.86	-0.4305002
5.861	-0.286528418
5.862	-0.104477937
5.863	0.093279498
5.864	0.2780028
5.865	0.419571703
5.866	0.502874374
5.867	0.515479337
5.868	0.454581079
5.869	0.331716105
5.87	0.160501996
5.871	-0.035053385
5.872	-0.225232886
5.873	-0.386671037
5.874	-0.493648757
5.875	-0.5300874
5.876	-0.495674048
5.877	-0.390598793
5.878	-0.230755339
5.879	-0.04134009
5.88	0.154593895
5.881	0.327267588
5.882	0.452271879
5.883	0.515074637
5.884	0.503181551
5.885	0.418905527
5.886	0.274856655
5.887	0.086997861
5.888	-0.11339072
5.889	-0.297137913
5.89	-0.44272846
5.891	-0.527073436
5.892	-0.541861781
5.893	-0.487292576
5.894	-0.366448215
5.895	-0.198183031
5.896	-0.006044953
5.897	0.183917742
5.898	0.33917069
5.899	0.440271341
5.9	0.475028371
5.901	0.433212013
5.902	0.325017184
5.903	0.163400852
5.904	-0.032743173
5.905	-0.230492698
5.906	-0.403028185
5.907	-0.526651607
5.908	-0.581081779
5.909	-0.562338845
5.91	-0.470132323
5.911	-0.312616137
5.912	-0.113803656
5.913	0.103702171
5.914	0.310017829
5.915	0.473369105
5.916	0.57780013
5.917	0.611185681
5.918	0.571957458
5.919	0.473117576
5.92	0.329352022
5.921	0.164852026
5.922	0.008754806
5.923	-0.11646966
5.924	-0.186179606
5.925	-0.185533411
5.926	-0.115971892
5.927	0.020337323
5.928	0.206042299
5.929	0.415250516
5.93	0.624844651
5.931	0.804583334
5.932	0.928491586
5.933	0.980403478
5.934	0.947472745
5.935	0.833154205
5.936	0.651800861
5.937	0.420180509
5.938	0.16893958
5.939	-0.072316132
5.94	-0.278252242
5.941	-0.419461572
5.942	-0.48133706
5.943	-0.461161887
5.944	-0.363819822
5.945	-0.211245159
5.946	-0.028315417
5.947	0.159129257
5.948	0.31947748
5.949	0.431935118
5.95	0.480248899
5.951	0.451452202
5.952	0.354367804
5.953	0.201868353
5.954	0.013854022
5.955	-0.178013979
5.956	-0.348868237
5.957	-0.47471749
5.958	-0.534924374
5.959	-0.524995175
5.96	-0.444109573
5.961	-0.301915727
5.962	-0.122923001
5.963	0.072628194
5.964	0.257173607
5.965	0.400647495
5.966	0.487194427
5.967	0.502021361
5.968	0.441152127
5.969	0.316821698
5.97	0.144017881
5.971	-0.051963928
5.972	-0.241209889
5.973	-0.401234025
5.974	-0.507382886
5.975	-0.544008767
5.976	-0.510692359
5.977	-0.407129685
5.978	-0.248290033
5.979	-0.058588023
5.98	0.139202225
5.981	0.314501108
5.982	0.441167656
5.983	0.503482642
5.984	0.48960195
5.985	0.404217817
5.986	0.262222495
5.987	0.079670036
5.988	-0.114826447
5.989	-0.295181365
5.99	-0.440468996
5.991	-0.525637457
5.992	-0.539392524
5.993	-0.480700899
5.994	-0.354559738
5.995	-0.182055204
5.996	0.012636458
5.997	0.204351974
5.998	0.362577289
5.999	0.467862268
6	0.506351469
6.001	0.467801594
6.002	0.362484114
6.003	0.204414683
6.004	0.013232777
6.005	-0.180666039
6.006	-0.35269873
6.007	-0.479456002
6.008	-0.540197559
6.009	-0.529389261
6.01	-0.446753252
6.011	-0.302205444
6.012	-0.120290278
6.013	0.077221209
6.014	0.262445192
6.015	0.4051963
6.016	0.489231647
6.017	0.501170886
6.018	0.438552166
6.019	0.314403498
6.02	0.143423014
6.021	-0.050987232
6.022	-0.240758758
6.023	-0.403448084
6.024	-0.512338147
6.025	-0.549229277
6.026	-0.512860369
6.027	-0.404603823
6.028	-0.242677657
6.029	-0.05369841
6.03	0.140106378
6.031	0.310912231
6.032	0.435483441
6.033	0.499052837
6.034	0.488229045
6.035	0.404992942
6.036	0.26245413
6.037	0.077037706
6.038	-0.120565603
6.039	-0.302150926
6.04	-0.446210145
6.041	-0.528863179
6.042	-0.540611771
6.043	-0.481403959
6.044	-0.355896454
6.045	-0.184261247
6.046	0.009817415
6.047	0.201006731
6.048	0.358586095
6.049	0.463540803
6.05	0.502871123
6.051	0.466635926
6.052	0.36424645
6.053	0.208197075
6.054	0.01716823
6.055	-0.178044707
6.056	-0.351539218
6.057	-0.478791183
6.058	-0.538860651
6.059	-0.526718228
6.06	-0.442676707
6.061	-0.297065814
6.062	-0.114807622
6.063	0.082014454
6.064	0.265747725
6.065	0.407260214
6.066	0.491543525
6.067	0.505439833
6.068	0.445139635
6.069	0.321762316
6.07	0.149376685
6.071	-0.047164652
6.072	-0.237501821
6.073	-0.398333461
6.074	-0.504534058
6.075	-0.540528421
6.076	-0.506151588
6.077	-0.401213783
6.078	-0.241089064
6.079	-0.050928685
6.08	0.145766354
6.081	0.318371772
6.082	0.441831693
6.083	0.502020908
6.084	0.487947448
6.085	0.403632714
6.086	0.262253571
6.087	0.078497812
6.088	-0.11892893
6.089	-0.302446713
6.09	-0.449396757
6.091	-0.533974446
6.092	-0.545520131
6.093	-0.484372918
6.094	-0.356635946
6.095	-0.18364458
6.096	0.010939612
6.097	0.202590455
6.098	0.36096042
6.099	0.466335914
6.1	0.504611287
6.101	0.465706883
6.102	0.360375386
6.103	0.202817203
6.104	0.012190383
6.105	-0.181875061
6.106	-0.355029024
6.107	-0.483073312
6.108	-0.543999654
6.109	-0.531701887
6.11	-0.4466939
6.111	-0.300535535
6.112	-0.118888641
6.113	0.076901162
6.114	0.260600374
6.115	0.403498898
6.116	0.489414555
6.117	0.503577261
6.118	0.441873568
6.119	0.31684947
6.12	0.144362025
6.121	-0.050307559
6.122	-0.238016704
6.123	-0.397023525
6.124	-0.502699831
6.125	-0.538788256
6.126	-0.504342525
6.127	-0.39923475
6.128	-0.239518817
6.129	-0.050632964
6.13	0.144563189
6.131	0.316469881
6.132	0.440423677
6.133	0.501701767
6.134	0.488359417
6.135	0.404001329
6.136	0.2622719
6.137	0.078759966
6.138	-0.117334179
6.139	-0.298711134
6.14	-0.443556693
6.141	-0.526988851
6.142	-0.538809298
6.143	-0.479218281
6.144	-0.353790178
6.145	-0.183248314
6.146	0.009194226
6.147	0.199328371
6.148	0.357162915
6.149	0.463168709
6.15	0.502871123
6.151	0.465168315
6.152	0.359718775
6.153	0.200689346
6.154	0.008677015
6.155	-0.184900259
6.156	-0.355404474
6.157	-0.480631809
6.158	-0.541428857
6.159	-0.532759998
6.16	-0.45317242
6.161	-0.310773841
6.162	-0.12933129
6.163	0.068551672
6.164	0.253693104
6.165	0.395746404
6.166	0.479675499
6.167	0.493183732
6.168	0.433219908
6.169	0.310847488
6.17	0.139387571
6.171	-0.056958906
6.172	-0.247794523
6.173	-0.409227909
6.174	-0.515524898
6.175	-0.550969459
6.176	-0.515772323
6.177	-0.410175333
6.178	-0.249761296
6.179	-0.059623886
6.18	0.137013272
6.181	0.309770265
6.182	0.433701211
6.183	0.49471699
6.184	0.481719327
6.185	0.39861351
6.186	0.258605986
6.187	0.076451804
6.188	-0.119059146
6.189	-0.300477731
6.19	-0.44560826
6.191	-0.52906226
6.192	-0.540264406
6.193	-0.479249774
6.194	-0.351542174
6.195	-0.17816395
6.196	0.017074164
6.197	0.209404289
6.198	0.368441508
6.199	0.474865218
6.2	0.515052325
6.201	0.478796104
6.202	0.376165673
6.203	0.220551917
6.204	0.030780949
6.205	-0.16297863
6.206	-0.33558776
6.207	-0.462509246
6.208	-0.521902365
6.209	-0.508138238
6.21	-0.421928812
6.211	-0.274577859
6.212	-0.091595502
6.213	0.105554506
6.214	0.290260241
6.215	0.43344869
6.216	0.519148764
6.217	0.533121101
6.218	0.471685771
6.219	0.34759195
6.22	0.176431924
6.221	-0.016905056
6.222	-0.203445208
6.223	-0.361567835
6.224	-0.46660132
6.225	-0.502244648
6.226	-0.467704402
